EC-Lab ASCII FILE
freq/Hz	Re(Z)/Ohm	-Im(Z)/Ohm	|Z|/Ohm	Phase(Z)/deg
6999984	12.6963524900728	-1.69627234202028	12.8091649380622	7.60983062927725
5969734	8.58271277429823	-1.42592747941141	8.70035790888183	9.43293076718197
5091109	6.33400431513031	-0.728229343883667	6.3757296556067	6.55857912592712
4341796	5.14665020599344	-0.349446025449296	5.15849986600316	3.88429346053384
3702781	4.45419760144315	-0.114750941717248	4.45567548765918	1.47575192305799
3157797	4.16817359242685	0.090673241579775	4.16915971549941	-1.2461992472278
2693047	3.9543539928612	0.161897352298954	3.95766676888526	-2.34446824020417
2296687	3.81900099503497	0.218390154283283	3.82524023553632	-3.27290337537903
1958656	3.72490036669666	0.243294306401358	3.73283737408212	-3.73700320013956
1670375	3.66688699437642	0.253097368251477	3.67561131069959	-3.94843035612079
1424531	3.6250044440004	0.23873855631872	3.63285745898402	-3.76799162248921
1214875	3.5931871157908	0.225122750371476	3.60023247885742	-3.58504734441953
1036062	3.57326184308755	0.203646174008023	3.57906020673773	-3.26185388429993
883578.1	3.55752448403262	0.18116587801778	3.56213440648293	-2.91525223346026
753531.2	3.54584446615612	0.160432073845177	3.54947199291504	-2.59058627180718
642624.9	3.5402873116217	0.140135772938583	3.54305973470484	-2.26676484994411
548046.8	3.53686435924498	0.121717884202851	3.53895814315912	-1.97100289018199
467390.6	3.53521150506303	0.105361462395631	3.53678122355457	-1.70710597819607
398593.7	3.5372080471159	0.0907977455499225	3.5383732136645	-1.4704211237321
339937.5	3.53556291103843	0.0790527293873156	3.53644658264961	-1.28088038256707
289906.2	3.53424944699458	0.0688707031655866	3.53492041315444	-1.116361854231
247234.4	3.53283315638434	0.0602996229441535	3.53334772636034	-0.977849307258127
210843.7	3.53234824721725	0.0525528202542017	3.53273915517909	-0.852360090968574
179812.5	3.532426112864	0.0461865244394577	3.53272804471039	-0.749100491214507
153343.8	3.53182841029834	0.0404998033544475	3.53206061016261	-0.656987212406915
130781.2	3.53294748535549	0.0363581041073064	3.53313456381355	-0.589618834855432
111531.3	3.53316553095477	0.0319665867075148	3.53331013807062	-0.518373824862095
95109.37	3.53464755276612	0.0278345074196039	3.53475714612459	-0.451181288057939
81109.37	3.53503746195371	0.0243086016229004	3.53512103972819	-0.393986864778815
69171.88	3.53548714215972	0.0214586269387876	3.53555226309084	-0.347752264683851
59000	3.53604427707692	0.0184306095830171	3.53609230886554	-0.298634999330025
50312.5	3.53661118625231	0.0159528205186193	3.53664716577827	-0.258446020706164
42906.25	3.53661703496299	0.0137864396254495	3.53664390600863	-0.223349261782307
36593.75	3.53678053968249	0.011872698558698	3.53680046749147	-0.192336775205261
31203.13	3.53745662379316	0.0108338697530841	3.53747321374338	-0.175474398111443
26609.38	3.53800201129809	0.00963914758103924	3.53801514201331	-0.156099715677535
22703.13	3.53761121757877	0.00794653529327052	3.53762014271775	-0.128703280337119
19359.37	3.53808564126266	0.0070483358724972	3.53809266186566	-0.114140641241397
16500	3.53744939929014	0.00641102207653181	3.53745520872593	-0.103838688197606
14112.02	3.53833968673636	0.00507040531997769	3.5383433196545	-0.0821042217886723
12011.13	3.53794294777452	0.00439967490365406	3.53794568342233	-0.0712511979375248
10236.38	3.53783881312919	0.00409660690621935	3.53784118494195	-0.0663450749293786
8750.684	3.53816300255249	0.00342259280615525	3.53816465795089	-0.0554242587119111
7449.463	3.53784493446162	0.00296027475055721	3.53784617295924	-0.0479419570286741
6363.206	3.53712657747803	0.00250692827016983	3.53712746586701	-0.0406082118425586
5414.761	3.54050524667307	0.00721403725895215	3.54051259622856	-0.116744161462471
4620.567	3.53383662557563	0.00545268243602162	3.53384083229643	-0.0884068721266704
3941.215	3.53381685350044	0.0005006089799761	3.53381688895917	-0.00811665763569407
3361.769	3.53874928355467	0.00370605208835258	3.5387512241864	-0.0600045520811223
2867.244	3.53867429122664	0.00267836504822524	3.53867530483198	-0.043366235862668
2442.658	3.53808981492089	0.00211070080083058	3.53809044450602	-0.034180656705222
2083.003	3.53713537992408	0.00181621377057262	3.53713584620992	-0.0294196753657383
1777.843	3.53735822188615	0.00207482178487286	3.53735883037485	-0.0336065816423906
1513.548	3.53770708993542	0.00210851152873536	3.53770771828316	-0.0341488976546379
1292.065	3.53771807756481	0.00223530038934091	3.53771878374987	-0.036202223693782
1101.762	3.53804803917683	0.00222185943400686	3.53804873682972	-0.0359811823059985
939.101	3.53791344771694	0.00206867342008441	3.53791405250977	-0.0335017360954596
801.2801	3.53833353118285	0.00232843291513293	3.53833429730611	-0.0377040091001774
684.3433	3.53856590973921	0.00254314971050801	3.53856682361361	-0.0411781845275767
582.9476	3.53824740297867	0.00237775250202341	3.5382482019203	-0.0385035717032825
497.0677	3.5391772843801	0.00211284732748565	3.53917791505258	-0.0342049042791119
423.5089	3.53908910057896	0.00259975374075406	3.53909005544594	-0.0420884826837467
361.5036	3.53964162385308	0.00249884723175721	3.53964250589671	-0.0404485514233674
308.1262	3.53991721526335	0.00232359916188034	3.53991797786769	-0.0376089038357636
262.7298	3.54025510201144	0.00257173274302015	3.54025603609786	-0.0416211267398365
224.2111	3.54029933719908	0.00243614337576449	3.54030017537592	-0.0394262457478273
191.2854	3.54079678788264	0.00222470947055233	3.54079748678349	-0.035999367986416
163.1722	3.54055431433151	0.0025925047975828	3.540555263488	-0.0419537573877997
139.1537	3.54124656389918	0.00236623262205912	3.54124735444795	-0.0382845757748276
118.6706	3.54101959703041	0.00185370870199605	3.54102008223469	-0.0299940942032467
101.1982	3.54131115685672	0.00206029646322303	3.54131175618575	-0.0333340599967146
86.24196	3.54149381479738	0.00173441698591379	3.54149423950547	-0.0280601267319842
73.61024	3.54152355112109	0.00117936705118297	3.54152374749231	-0.019080136290587
62.69291	3.54206644946762	0.00110637228401806	3.54206662225653	-0.0178964627816262
53.57697	3.54189683329848	0.00142944978147205	3.54189712174937	-0.0231236083128063
45.65746	3.542110507668	0.00119610169274766	3.54211070961812	-0.0193476674738674
38.96512	3.54206364131393	0.000953137824516746	3.54206376955438	-0.0154177843345328
33.18414	3.54212943579517	0.000954348518506973	3.54212956435923	-0.0154370815530728
28.30617	3.54236079967427	0.000592335512402182	3.54236084919793	-0.00958070804170211
24.17237	3.54233034865244	0.000478610632513436	3.54233038098541	-0.00774133590241568
20.61345	3.54220521321656	0.000594792936172689	3.54220526315418	-0.00962087811271873
17.55618	3.54210563034077	0.000325704016628564	3.54210564531536	-0.0052684666744071
14.98558	3.54217587489669	0.000503756567143678	3.54217591071799	-0.00814841668627817
12.76553	3.5420352282628	0.000757842534490426	3.54203530933558	-0.0122588216381247
10.8809	3.54197097064648	0.000569648820572783	3.54197101645427	-0.00921477708668591
9.278505	3.54178591547763	0.00045843991699488	3.54178594514729	-0.00741622246072459
7.923394	3.54190549120244	0.000434472797925212	3.54190551785004	-0.00702826700806356
6.75822	3.54170461219873	0.000169810498632509	3.54170461626959	-0.00274710229861865
5.761429	3.54201159837456	0.000104208991964105	3.54201159990752	-0.00168569053468747
4.919708	3.54180561770426	0.000813916508151056	3.54180571122437	-0.013166724830711
4.191257	3.54166625147944	0.000168457619962195	3.54166625548574	-0.0027252456776078
3.564097	3.54186036309943	0.000193715748241434	3.5418603683969	-0.0031336906739805
3.051758	3.54176144488282	0.000181803998602911	3.54176144954895	-0.00294107945199138
2.604164	3.54196866879101	0.000213608975897044	3.54196867523217	-0.00345539272495938
2.214424	3.54208160351854	2.70239396760007E-05	3.54208160362163	-0.000437132133738213
1.892567	3.54209189255135	0.000136471275024179	3.54209189518036	-0.00220751700322302
1.607507	3.54225893368167	-0.000406899639727606	3.54225895705197	0.00658157192224572
1.376413	3.54232245565295	0.000143827785202728	3.54232245857284	-0.00232636220092024
1.17375	3.54216440766144	0.000150366402326246	3.542164410853	-0.00243223047751554
1.001604	3.54209317913091	-1.44218307361292E-05	3.54209317916027	0.000233282974851167
