EC-Lab ASCII FILE
freq/Hz	Re(Z)/Ohm	-Im(Z)/Ohm	|Z|/Ohm	Phase(Z)/deg
6999984	10.5209948498273	-2.44029236873051	10.8002944161248	13.0585618581462
5969734	7.02995291154472	-1.81468921033962	7.26039495266333	14.4741744121539
5091109	5.01098758069656	-1.2504914775897	5.16466121535766	14.0119693588218
4341796	4.02710750862511	-0.95100188075108	4.13787378531738	13.286982942331
3702781	3.4972476791742	-0.611295457347523	3.55027090032057	9.91475389541928
3157797	3.3214146813099	-0.407169286409703	3.34627887555959	6.98896783289554
2693047	2.99305138726837	0.848727341433898	3.11106006160707	-15.8315286175527
2296687	2.9741329686529	0.684276715887393	3.05183576542607	-12.9569019565561
1958656	2.96453468133426	0.604878900819297	3.02561470803703	-11.5322423989634
1670375	2.94872595928704	0.475036361781061	2.98674477114926	-9.15165432639634
1424531	2.95445078755141	0.396007993889301	2.98087265532887	-7.63429592712933
1214875	2.98125599687862	0.291309823590497	2.99545467871658	-5.58087076628659
1036062	2.99179522948261	0.227637447336275	3.00044288440635	-4.35109420834062
883578.1	2.96826027696019	0.189066077010823	2.97427555099658	-3.64458396186937
753531.2	2.95143956330777	0.145483375278262	2.95502299624566	-2.8219592345525
642624.9	2.93176188561316	0.140646385857572	2.93513358465825	-2.74656371829123
548046.8	2.9359463064101	0.106822006200565	2.93788897937479	-2.08374093074091
467390.6	2.9206444733228	0.0949247037261475	2.92218665367709	-1.86153128201312
398593.7	2.92383747993795	0.0830160379697166	2.92501577288911	-1.62635273359254
339937.5	2.91627509284893	0.0703147482191991	2.9171226544299	-1.38119956291653
289906.2	2.91480088659416	0.0592675836369112	2.91540337774385	-1.16485299130631
247234.4	2.91175743078968	0.0509862974625424	2.91220379408582	-1.0031746147607
210843.7	2.90998217039848	0.043847990350426	2.91031250526379	-0.863274936965816
179812.5	2.90864253604222	0.038206984279079	2.90889346249082	-0.752575480241975
153343.8	2.90668176099712	0.0338473681868162	2.90687882513986	-0.667160651017258
130781.2	2.90527516365397	0.0306220078100083	2.90543653930127	-0.603883192123009
111531.3	2.9059297750754	0.0279301317548453	2.90606399618619	-0.55067724264735
95109.37	2.90496249501356	0.0256509306160391	2.90507574215835	-0.50591078960663
81109.37	2.90502196781426	0.024541250709765	2.90512562662441	-0.48401583771928
69171.88	2.90531246134062	0.0230504337381542	2.90540389972145	-0.454568958317429
59000	2.9058916057662	0.0227393245662774	2.90598057483944	-0.448344574014246
50312.5	2.90737378850176	0.0228532252538311	2.90746360527034	-0.450360526016414
42906.25	2.90844980328429	0.0235456021659826	2.90854510943286	-0.463832711836443
36593.75	2.90984987993303	0.0233675629035429	2.90994370508131	-0.460104131688849
31203.13	2.91109511850913	0.0245929431064169	2.91119899729619	-0.484023458057955
26609.38	2.91357409658075	0.0254479693254082	2.91368522929453	-0.500424604126693
22703.13	2.91610819950145	0.0253796879125	2.91621864059575	-0.498648263074449
19359.37	2.91760922505785	0.0264139896444624	2.91772878948535	-0.518701671312469
16500	2.92110299698173	0.0273462692956887	2.92123099692921	-0.536365902840573
14112.02	2.92333440503022	0.0286255271459611	2.92347455341034	-0.561026980371255
12011.13	2.92625023963079	0.0294597319497913	2.92639852732771	-0.57680005010497
10236.38	2.93026781719157	0.0298216325205017	2.93041956215058	-0.58308482415976
8750.684	2.93275969426375	0.0298056364172699	2.93291114769272	-0.582276953668626
7449.463	2.93705481809343	0.0297167835935498	2.93720514974916	-0.579692341054791
6363.206	2.94039838482999	0.0299664609145927	2.9405510793541	-0.583897851271051
5414.761	2.94441490697783	0.0293761419457492	2.94456144479087	-0.571615469608391
4620.567	2.94788406620227	0.0282597067931993	2.9480195180489	-0.549245593004657
3941.215	2.95064467711079	0.0275720158160185	2.95077349632573	-0.535379326813137
3361.769	2.95458505613764	0.0254775722489621	2.95469490144745	-0.494052855078602
2867.244	2.95790688070048	0.0248100642164949	2.95801092867853	-0.480569095511112
2442.658	2.96006970671717	0.0229304965689732	2.96015852215681	-0.443839005800676
2083.003	2.9630788108512	0.0202438856894936	2.96314796360613	-0.391441213295049
1777.843	2.96449609083732	0.0193263425913116	2.96455908696516	-0.373521213407198
1513.548	2.96617009258471	0.0180907651927377	2.96622526014617	-0.349444438235991
1292.065	2.96736605531301	0.0150953082808492	2.96740445078793	-0.291467240017159
1101.762	2.96836856016139	0.0138281292005533	2.96840076911993	-0.266910154326293
939.101	2.96996658652696	0.0130631763640069	2.96999531509114	-0.252009584723003
801.2801	2.97133520463501	0.0111683448585308	2.97135619376578	-0.215356385948673
684.3433	2.9714033191811	0.0101043107907665	2.97142049907734	-0.194834584713134
582.9476	2.97214285597171	0.00855875483270623	2.9721551790894	-0.164991791474848
497.0677	2.9739674837751	0.00752726457765125	2.97397700970663	-0.145018253553469
423.5089	2.97438843086314	0.00659421508295423	2.97439574053706	-0.127024456701606
361.5036	2.97457108310288	0.00560085923166714	2.97457635606416	-0.107882853498757
308.1262	2.97469689875091	0.00512577371733595	2.97470131492129	-0.0987276754819209
262.7298	2.97467274337526	0.0042564948549629	2.97467578870844	-0.0819851611588441
224.2111	2.97493918310994	0.00416755932860947	2.97494210225234	-0.0802649699705229
191.2854	2.97497623204357	0.00354808031061517	2.97497834783685	-0.068333295774262
163.1722	2.9751233895474	0.00314542954968335	2.97512505228924	-0.0605755618197497
139.1537	2.97470069537274	0.00255802964504493	2.97470179523372	-0.0492702565442818
118.6706	2.9744980933596	0.00250062484732122	2.97449914448206	-0.0481678628281382
101.1982	2.97447102812067	0.00217259328831892	2.97447182156611	-0.0418495936606449
86.24196	2.97448204709707	0.00206684625085659	2.97448276518056	-0.0398124937862588
73.61024	2.97423680335654	0.00152717763912516	2.97423719543551	-0.029419589422069
62.69291	2.97452298733269	0.00147531057618249	2.97452335319659	-0.0284176867736135
53.57697	2.97457814170833	0.00147665001851467	2.97457850823007	-0.0284429599419567
45.65746	2.9748567450464	0.00123695145558983	2.97485700220984	-0.0238236997130987
38.96512	2.97473918875992	0.00101413235740278	2.97473936162623	-0.0195329734839686
33.18414	2.97448652612014	0.000771651127722445	2.97448662621228	-0.0148638601973562
28.30617	2.9746563611002	0.000711766566233031	2.97465644625485	-0.0137095565049738
24.17237	2.97463094724347	0.000442332681988029	2.97463098013128	-0.00851997981642051
20.61345	2.9743616602301	0.000785615189224169	2.97436176398198	-0.0151334769470109
17.55618	2.97428605015635	0.000596906203704894	2.97428611005257	-0.011498626965123
14.98558	2.9744547971093	0.000501592727782972	2.97445483940197	-0.00966198783451937
12.76553	2.97443719335021	0.000494888054571055	2.97443723452005	-0.00953289471369844
10.8809	2.97453885919218	0.000404306463124503	2.97453888666933	-0.00778777986128898
9.278505	2.97469413340834	0.000592980890857517	2.97469419251128	-0.011421443820541
7.923394	2.97449349915114	0.000233885762842348	2.97449350834641	-0.00450519292621444
6.75822	2.97442176576685	0.000577174355762088	2.974421821766	-0.0111180111018176
5.761429	2.97421921479339	0.000119697630817136	2.97421921720201	-0.00230587208425077
4.919708	2.97428702681371	0.000179621446998096	2.97428703223751	-0.00346017405775975
4.191257	2.97430523105206	0.000284981480203563	2.97430524470474	-0.00548976474728284
3.564097	2.97409253233483	0.000108276359308136	2.97409253430581	-0.00208593994275862
3.051758	2.97422173251796	0.000200678086925198	2.97422173928809	-0.00386588776432306
2.604164	2.97377118540601	0.000217592830451179	2.97377119336672	-0.00419237057514451
2.214424	2.9736077914825	-0.000134409480888858	2.97360779452021	0.00258981564357273
1.892567	2.97350228555011	6.87669979692629E-05	2.97350228634528	-0.00132505657448725
1.607507	2.97309775654943	5.04695236613771E-05	2.9730977569778	-0.000972618775546378
1.376413	2.97273200089686	0.00014926369798587	2.97273200464419	-0.0028768755203424
1.17375	2.97286049491323	7.3713651587587E-06	2.97286049492237	-0.000142067921979002
1.001604	2.97294484908313	-0.000149168072787447	2.97294485282539	0.00287482662326701
