EC-Lab ASCII FILE
freq/Hz	Re(Z)/Ohm	-Im(Z)/Ohm	|Z|/Ohm	Phase(Z)/deg
6999984	21.1091121850361	89.0120977275731	91.4808622560121	-76.658830903749
5969734	17.854278246531	88.3390708495451	90.1252833019985	-78.5738277424147
5091109	13.8869014365382	92.5147772634817	93.5512161525427	-81.4633684948185
4341796	12.1231648337798	101.586747198454	102.307567324952	-83.1946177685858
3702781	14.5202587669472	113.001988083954	113.931063479568	-82.6778671331573
3157797	15.8512055874641	126.342205658039	127.332688847422	-82.8488950350038
2693047	18.0350162725624	142.286239829751	143.424669624305	-82.7761866908018
2296687	20.3255672058041	162.969544342386	164.232156003027	-82.8907782498279
1958656	24.8260829464203	187.045377101151	188.685737376662	-82.4394593946034
1670375	30.8055860994891	215.788191486943	217.975979686154	-81.8754397410766
1424531	39.085949101523	249.028969306629	252.077644726954	-81.0800024340965
1214875	49.6901336134231	286.656372798442	290.931238344182	-80.1658482719652
1036062	62.5893425280896	330.55418873796	336.427551621905	-79.278164759969
883578.1	79.9989450077644	380.459045534665	388.778750102811	-78.1254309719453
753531.2	102.376618925013	437.216729615099	449.042805039609	-76.8213217344481
642624.9	130.580858410011	500.828693678254	517.57196697132	-75.3866354154405
548046.8	238.678558590109	624.408661129121	668.471114128138	-69.0807765137897
467390.6	294.333979974874	696.644380836073	756.271039454986	-67.0958215283385
398593.7	360.596608243844	773.412949265654	853.344891570085	-65.0031504774026
339937.5	438.152241154373	854.293793427923	960.101698737207	-62.847511364782
289906.2	527.142358735752	937.960860509633	1075.94128195802	-60.6636254328613
247234.4	634.455529160361	1022.97590653603	1203.74977625558	-58.1925730540211
210843.7	755.834499088095	1107.24496761712	1340.62567792997	-55.6815282210807
179812.5	895.269846725272	1186.61827529093	1486.46258940813	-52.9664817651841
153343.8	1049.87654764731	1255.57458881959	1636.67599523831	-50.0985701695465
130781.2	1219.5684291727	1311.08729004255	1790.61359191364	-47.0711471237445
111531.3	1401.67699877754	1351.28835359493	1946.96651832108	-43.951409117991
95109.37	1591.3845384624	1370.56602052935	2100.22759859184	-40.7363882309073
81109.37	1780.01807924944	1372.8520698138	2247.92952915497	-37.6414707568389
69171.88	1963.81960039357	1349.85140600696	2382.99942114741	-34.5030829748539
59000	2140.63541307423	1315.24559941039	2512.4074029655	-31.5673274466949
50312.5	2310.49156453056	1275.50100555156	2639.18057073212	-28.900781868156
42906.25	2465.94472345158	1188.70723457837	2737.50036870457	-25.7363646135382
36593.75	2590.75222076038	1119.76777992865	2822.38851867371	-23.3748331172373
31203.13	2699.85525760042	1048.66525074222	2896.36275699486	-21.2269346644288
26609.38	2806.21588237598	978.248558245119	2971.83744848332	-19.2185858122024
22703.13	2894.25558575819	910.18329067677	3033.99884942623	-17.4572791725025
19359.37	2971.50607886498	851.419053622921	3091.07793198484	-15.9884789463728
16500	3036.61933902494	796.925518925008	3139.45015772733	-14.7050019190782
14112.02	3092.26617125465	748.568372424386	3181.58210362078	-13.6082346484829
12011.13	3141.4765540509	707.637784563368	3220.19039402848	-12.6943669652492
10236.38	3188.6271033217	673.301375050012	3258.93810092827	-11.9232631758283
8750.684	3231.34681048516	651.982449135961	3296.46527717401	-11.4073032221571
7449.463	3266.34473657557	638.455380814561	3328.15763019813	-11.0598616151898
6363.206	3300.77217260828	632.417186912496	3360.81068103627	-10.8462400308532
5414.761	3338.16346520385	633.653258762258	3397.77158925696	-10.7480637126576
4620.567	3370.88705818173	642.827218202189	3431.63319594018	-10.7966562632626
3941.215	3404.03430107609	662.715482726785	3467.94482856178	-11.0168382143534
3361.769	3435.17543080433	688.083486849393	3503.41106998258	-11.3267453561617
2867.244	3474.1791022227	728.608448076139	3549.7592460516	-11.8444700198419
2442.658	3550.10730338446	743.125037590806	3627.05068713384	-11.8227148123608
2083.003	3558.23458473215	848.893197321778	3658.09417872793	-13.4183163281309
1777.843	3583.16805494178	868.74912892609	3686.97957127038	-13.6285402727423
1513.548	3659.94966064829	972.693582798529	3786.99938269033	-14.8832777370332
1292.065	3702.57870442614	1064.31571189137	3852.51307551951	-16.0374324603888
1101.762	3757.41278067305	1174.37186084908	3936.66103086351	-17.3565302738067
939.101	3817.24383463917	1298.24402379119	4031.97073878274	-18.7831608062148
801.2801	3880.1936097057	1449.11589553658	4141.96080709339	-20.4788924262619
684.3433	3953.24129948339	1619.04014501317	4271.93255601085	-22.2714309953743
582.9476	4025.27821549	1809.08121143531	4413.12129242633	-24.2005856211578
497.0677	4114.86177394993	2026.31875476125	4586.72596899047	-26.2174371670639
423.5089	4209.99587886955	2265.44736470464	4780.82807287041	-28.2852074722234
361.5036	4312.81795374831	2564.23313657331	5017.53826899949	-30.7340634660802
308.1262	4426.46060518867	2890.39989253973	5286.58349296414	-33.1438208199973
262.7298	4557.07613350491	3263.02436361021	5604.84352003461	-35.6039755415741
224.2111	4702.72854380258	3693.74133406195	5979.9147819725	-38.1477362646165
191.2854	4869.2736926984	4184.58271575836	6420.32388586653	-40.6752822820566
163.1722	5050.81566112675	4746.7090605274	6931.23262832638	-43.2221598955044
139.1537	5277.09897350264	5368.48006429159	7527.83845315764	-45.4918118797782
118.6706	5519.5940047794	6100.72702634616	8227.07652982438	-47.8629805261932
101.1982	5806.77972516502	6933.18144399275	9043.6549973953	-50.0526590614227
86.24196	6137.6935917195	7874.61485383397	9984.02933299263	-52.0661588042273
73.61024	6532.42297103284	8937.61648677965	11070.3901619244	-53.8372687518018
62.69291	6971.82983619147	10156.959477673	12319.5063657559	-55.533940022633
53.57697	7496.9727005945	11504.1411443747	13731.3460062426	-56.908677767536
45.65746	8115.58842977744	13059.3533892557	15375.6133701067	-58.1415798102544
38.96512	8818.37499876696	14795.7228201642	17224.3186045198	-59.2047029991197
33.18414	9689.48742129428	16750.1538250271	19350.8092763453	-59.9518399639703
28.30617	10667.2579107905	18950.8900978621	21746.8762546847	-60.6252945563671
24.17237	11775.3613170836	21354.9899344602	24386.3635921546	-61.1272055849016
20.61345	13095.2948940254	24102.9830957453	27430.6496910896	-61.4845020659452
17.55618	14659.9990536113	27172.4445552629	30874.8654306496	-61.6523786999186
14.98558	16406.8534835272	30538.9009816777	34667.1215187913	-61.7533338634206
12.76553	18494.5335250147	34299.8148245478	38968.2571756316	-61.6663588701198
10.8809	20880.0306082399	38429.5149703261	43735.6067644608	-61.4832988545755
9.278505	23610.318167638	42992.5706374959	49049.039277005	-61.2256397341051
7.923394	26747.2916805961	47939.6406178741	54896.5094957576	-60.8412423493519
6.75822	30329.9676961281	53319.9991134939	61342.7195835917	-60.3675208443377
5.761429	34459.689710993	59307.3687386481	68591.7939820784	-59.8418893630847
4.919708	39007.6277647511	65780.1803810452	76476.3176074543	-59.3320715169773
4.191257	44457.2752094219	72695.1716572937	85211.7204457795	-58.5518175915681
3.564097	50520.9511933503	80302.7673555466	94873.0781330506	-57.8247341495471
3.051758	57148.4292028196	88257.5719100467	105144.386249608	-57.0761877085205
2.604164	64784.7165750975	96596.2782695736	116309.502953321	-56.1512275623731
2.214424	73140.7703665877	105725.504574266	128559.148283197	-55.3245640555583
1.892567	82120.1936064406	115373.049064734	141614.500134883	-54.557511077749
1.607507	92934.1852101853	125582.430123256	156229.669193606	-53.4976193708483
1.376413	103440.649809299	136784.634390508	171493.452464854	-52.9023334104412
1.17375	115485.665158687	147561.227095095	187379.97384714	-51.9522433353994
1.001604	129519.819901318	159791.439152362	205690.757628175	-50.9733162945286
