EC-Lab ASCII FILE
freq/Hz	Re(Z)/Ohm	-Im(Z)/Ohm	|Z|/Ohm	Phase(Z)/deg
6999984	25.1689136518799	4.80463748971686	25.6234025028562	-10.8074908951685
5969734	16.6591075752937	-0.802449429813503	16.678422895844	2.75773811416967
5091109	12.7539016617455	-6.21629278580303	14.1881747802986	25.9847532768833
4341796	8.38592603459379	-9.78984635670123	12.8904944492248	49.4168306074321
3702781	6.22033243072179	-6.30266022885584	8.8552843832985	45.3766645516907
3157797	4.0533669929569	-5.02533854736712	6.45630013980502	51.1108433540939
2693047	2.75357939788866	-4.6029682410292	5.36372222699874	59.1113681742929
2296687	2.52984586544613	-3.57566650178501	4.38012682863206	54.7199331535127
1958656	1.84243001638152	-3.28390373980012	3.7654444807402	60.7054513519059
1670375	1.45643096084143	-2.70749175058528	3.07436216526044	61.7230243960582
1424531	1.21870584401596	-2.4365544612903	2.72434241186241	63.4268862872182
1214875	0.892319801949305	-2.31591442639023	2.48187313521727	68.9283697402849
1036062	0.848164525637255	-1.85628128101221	2.04087316038645	65.4435831345197
883578.1	0.742046018251336	-1.60713042012286	1.7701696191289	65.2162334814118
753531.2	0.653541098933804	-1.38141818159786	1.52821207966851	64.6814346754367
642624.9	0.613675256379987	-1.13645179712161	1.29155720255588	61.6312938530577
548046.8	0.599540727120151	-1.03080896136497	1.19248320671869	59.8167938116579
467390.6	0.561938989406045	-0.872569355653328	1.03785967656517	57.2182640529791
398593.7	0.504759517579526	-0.786403470493372	0.934458446904481	57.3052906124815
339937.5	0.501711433321992	-0.659569107952462	0.828701255273102	52.7410056840662
289906.2	0.466578915609917	-0.559451876006783	0.728479434204724	50.1721322208633
247234.4	0.434820646519791	-0.510538580870404	0.670610645007261	49.5792927902415
210843.7	0.437531421045578	-0.445752859224401	0.624603358867763	45.5332825649897
179812.5	0.425836472907713	-0.35940086052004	0.557230365469279	40.1639632865259
153343.8	0.409543682243559	-0.316230098664159	0.517423910316056	37.6736079595677
130781.2	0.406427598224275	-0.280079264271304	0.49358665589044	34.5716832116649
111531.3	0.399888953267186	-0.243819512791671	0.468357907761888	31.3714159878058
95109.37	0.393520470946564	-0.212123324938172	0.447051077659847	28.3264489743169
81109.37	0.386537717436718	-0.186536256757268	0.429193641712225	25.7611335790217
69171.88	0.381012148306317	-0.159859199835328	0.413189086168773	22.7611953186522
59000	0.371223955723401	-0.135150772781476	0.395060700002366	20.0049474677076
50312.5	0.365927073131323	-0.103950125254931	0.380405377710374	15.858434715612
42906.25	0.395338217071228	-0.105640915301806	0.409209370448504	14.9608275746042
36593.75	0.380278157219435	-0.0958318231521717	0.39216733059611	14.1442882320294
31203.13	0.374290561763461	-0.0839608924741278	0.383592043830759	12.6432992369692
26609.38	0.370263263858461	-0.0715583571228157	0.377114681545597	10.9383258076866
22703.13	0.370568136947068	-0.0634849321069805	0.375966861205943	9.72141501703034
19359.37	0.368160218157776	-0.056583153884512	0.372483019126375	8.73751470249783
16500	0.365907668603956	-0.0504451626975364	0.369368564421451	7.84949314540252
14112.02	0.364397955837185	-0.0447614749194543	0.367136840776411	7.00294800309673
12011.13	0.362413662299604	-0.0402033857984561	0.364636771117603	6.33007209807304
10236.38	0.360661372914084	-0.0360289923560072	0.36245649973819	5.70475054412962
8750.684	0.35904274446364	-0.0325332830336415	0.36051367083223	5.17749873823198
7449.463	0.357779472978618	-0.029557832183526	0.358998351985419	4.722746719899
6363.206	0.363036803771873	-0.0323400314324083	0.364474414089585	5.09058333254181
5414.761	0.338061297088676	-0.0157391925118459	0.338427485246401	2.66560707367043
4620.567	0.336459348084648	-0.0446946829130885	0.339414948984643	7.56677285097317
3941.215	0.329897972900774	-0.0356739672075281	0.33182119350693	6.1717753184343
3361.769	0.332844422647427	-0.000105276031638627	0.332844439296411	0.0181221966937518
2867.244	0.382258660913506	-0.0441983380124729	0.384805375386638	6.59548906708944
2442.658	0.355520817371095	-0.0577183084103823	0.360175588720235	9.22143485626533
2083.003	0.323836138207348	0.00624556874967484	0.323896359254091	-1.10488092593217
1777.843	0.359653115530765	-0.0523489969659641	0.363442954250496	8.28148040461936
1513.548	0.37811401384386	0.0049550972250056	0.378146480155011	-0.750805040655021
1292.065	0.385151759143272	-0.00755579015117042	0.385225865611287	1.12386702838942
1101.762	0.329729539011636	-0.0419257627648563	0.332384323457411	7.24638631109192
939.101	0.320314502098411	-0.0323435285486545	0.321943293288632	5.76585763889592
801.2801	0.335876672306092	-0.0354313959660797	0.337740318617009	6.02182080429266
684.3433	0.319680437254966	-0.0111399377376286	0.319874475656193	1.99578446073699
582.9476	0.406601270318357	-0.0670365345255875	0.412090390552487	9.36215902032741
497.0677	0.317854650478985	-0.0258375374318708	0.318903052935623	4.64719994277982
423.5089	0.348575432051263	-0.0345339397386908	0.350281921919473	5.65792384944917
361.5036	0.334815337971235	0.0105927535425527	0.334982860708433	-1.81209648344923
308.1262	0.349278272547981	-0.0355072250308778	0.351078445227694	5.80468125909398
262.7298	0.260899089609708	0.0013433084916438	0.260902547777667	-0.294999983190377
224.2111	0.237050757133996	-0.0772725680192498	0.24932731744855	18.0546621584398
191.2854	0.250335167026411	-0.0511257844579114	0.25550252774988	11.5427447153481
163.1722	0.363391453947184	-0.043275312468791	0.36595915273582	6.79121717948409
139.1537	0.289823422985998	-0.0159780178924109	0.290263524348291	3.15553239808869
118.6706	0.329244810549499	-0.0330888116466408	0.330903331397498	5.73890570421296
101.1982	0.28318110095046	-0.0310872911765213	0.284882353978284	6.26477782773993
86.24196	0.330034092076637	-0.00308386691812451	0.330048499720903	0.535361106755252
73.61024	0.281377974688903	-0.0427892119021165	0.284612862139492	8.64673526943731
62.69291	0.23059016978295	-0.0293209098093123	0.232446858771151	7.24660976463202
53.57697	0.298395273809043	0.0206602418605748	0.299109653848402	-3.96071457124839
45.65746	0.284617087942101	-0.0146871643578774	0.284995788645231	2.95402772520354
38.96512	0.331547862411681	-0.039119772499234	0.333847782185455	6.72929190098635
33.18414	0.301612280605813	-0.0511040876265226	0.305911090979682	9.61665541376862
28.30617	0.337330802734861	0.0145731313122909	0.337645445149185	-2.47371434075639
24.17237	0.271182380718762	-0.0106416913942766	0.271391100089937	2.24723787532826
20.61345	0.30813445316784	-0.00572411712223621	0.308187616146193	1.06424332135472
17.55618	0.314387526837343	-0.0104126446188979	0.314559915117709	1.89696642981078
14.98558	0.306330388077541	0.00984659320511988	0.306488600208041	-1.84106465661325
12.76553	0.286216194503704	0.00505325685689498	0.286260799623427	-1.01147390842317
10.8809	0.302693127604009	-0.028654826113161	0.30404642500492	5.40786100342668
9.278505	0.312553448559797	0.00631648346622977	0.312617267869196	-1.15774946056228
7.923394	0.293002001957275	-0.0274021708167821	0.29428056700442	5.34288243283869
6.75822	0.285434634134954	0.0125753456329051	0.285711514786405	-2.52263920688261
5.761429	0.312178534690155	-0.026809871479609	0.31332763480109	4.90851396102529
4.919708	0.277000614152036	-0.0266980868010369	0.278284257692455	5.50532055142064
4.191257	0.279133216946875	0.0167795381464785	0.27963709643665	-3.44008214675789
3.564097	0.310401459300812	0.0114362629324572	0.310612063587257	-2.11002021297238
3.051758	0.31160273260605	-0.0401433438974688	0.314177897101034	7.3409014289767
2.604164	0.301683609132709	-0.0435879586658269	0.304816190777313	8.22133702486447
2.214424	0.268706248917765	-0.0256616527199421	0.269928821409969	5.45524633195739
1.892567	0.263913259594152	-0.00440425545807845	0.263950006735651	0.956078629916541
1.607507	0.269128419263429	0.0114091013344793	0.269370142459205	-2.42747378190036
1.376413	0.283124487350501	0.0283071235368703	0.28453605848893	-5.70952614735204
1.17375	0.298051802550789	0.0230241470076249	0.298939773782619	-4.41725822860674
1.001604	0.314853835444828	0.0229589409045874	0.315689801326839	-4.1705901575204
