EC-Lab ASCII FILE
freq/Hz	Re(Z)/Ohm	-Im(Z)/Ohm	|Z|/Ohm	Phase(Z)/deg
6999984	41.6299289477969	68.8019601588895	80.4161719177433	-58.8231704033421
5969734	40.1132771774182	65.3783821237213	76.7033757733498	-58.4685668239356
5091109	41.051103733182	65.6237827825816	77.4059040668599	-57.9718697113367
4341796	45.1994237084882	66.9611763540771	80.7885328638988	-55.9802798746179
3702781	52.8907609378522	67.1643846569241	85.4896903663143	-51.7801955686775
3157797	60.1144566609176	66.7481959020188	89.827999843098	-47.9933112358516
2693047	67.5525840973462	66.0369639003277	94.4681545252273	-44.3499872081738
2296687	75.7540103039559	64.8477592798486	99.7191153227357	-40.5645409994137
1958656	83.9103592445111	62.3875979406574	104.561755749165	-36.6309107160989
1670375	91.8444594698383	59.2214642358999	109.2821420066	-32.8139919356523
1424531	98.9105058342342	55.0029220138658	113.175127985116	-29.0779003113648
1214875	104.84879091195	50.4671573572973	116.362377628785	-25.7030356585955
1036062	110.074760684961	45.7602638314648	119.207611693955	-22.5736261252602
883578.1	114.237834446766	41.244188195012	121.455201119393	-19.8515036405936
753531.2	117.684974508077	36.8632808609532	123.32337451108	-17.3924833754512
642624.9	120.433060511782	32.8184490638153	124.824567546572	-15.2431926352005
548046.8	122.586394264063	29.161890244684	126.007300984139	-13.3812860658316
467390.6	124.332756454731	25.8773239258059	126.997126822588	-11.7570996856624
398593.7	125.712289849064	23.0130975103113	127.801339883877	-10.3737962217222
339937.5	126.790424840894	20.604679763641	128.453745213975	-9.23043029364888
289906.2	127.592151557464	18.4880012113219	128.924642050513	-8.24473089163967
247234.4	128.364415810434	16.7704390498315	129.455285223425	-7.44336920105789
210843.7	128.945488850515	15.4796291624818	129.871313283212	-6.84547628268298
179812.5	129.374505370528	14.3463911239583	130.167513528339	-6.3277000528012
153343.8	129.855711013221	13.5145418871903	130.557069993048	-5.94158379466254
130781.2	130.321411898677	13.0434883188273	130.972527603265	-5.7155324639184
111531.3	130.737573227668	12.757185873046	131.358512647104	-5.57319656957861
95109.37	131.107581362188	12.8083556585341	131.731742056796	-5.57971797520279
81109.37	131.49857766107	13.0383671261669	132.143387818692	-5.66249204194975
69171.88	131.922957798596	13.5379028217999	132.61576681203	-5.85916954541092
59000	132.349105965208	14.3372723108975	133.123413519586	-6.18269589400949
50312.5	132.912425320367	15.3300819651229	133.793588103465	-6.57940614178012
42906.25	133.403887709568	16.5360735532332	134.424845116462	-7.06605357465244
36593.75	133.922486778635	18.1657617414936	135.148908114799	-7.72467428973327
31203.13	134.447565129722	20.110011901772	135.943224722677	-8.50695648573719
26609.38	135.295744679869	22.4180058888545	137.140459079417	-9.40821909747797
22703.13	136.084314457001	25.053191302272	138.371250755567	-10.4313784801328
19359.37	137.011774141996	28.2299560686655	139.889801891261	-11.6423190505639
16500	137.949219349156	31.9506426348064	141.600955801218	-13.0404334735083
14112.02	139.119731527106	36.0551921492601	143.715957990385	-14.5294820281179
12011.13	140.395835800085	40.9829559644846	146.255233716921	-16.2730556240584
10236.38	141.845607041269	46.6384550975046	149.316180405166	-18.2007262891525
8750.684	143.452041537826	52.9572665085656	152.914879254536	-20.2623086501245
7449.463	145.303264105683	60.5748125236194	157.424097494753	-22.6305437526285
6363.206	147.285121515901	69.0348419271592	162.661355028973	-25.1132214451319
5414.761	149.645837872875	78.9979262715969	169.217461119967	-27.8295398673338
4620.567	152.188816799574	90.2046638896362	176.913304605099	-30.6558776453566
3941.215	155.285829146605	103.410471709164	186.567452662195	-33.6610871174414
3361.769	158.654286356798	118.336938099442	197.926282989743	-36.7184930446626
2867.244	162.598696252513	135.458507069593	211.630203800261	-39.7971671652391
2442.658	167.043079292577	155.549390815627	228.25206093847	-42.9594644760149
2083.003	172.225683030173	178.335330785976	247.921713655245	-45.9984612692785
1777.843	178.167442717108	204.578954602471	271.28617051113	-48.9474521225051
1513.548	184.979675121438	235.117861313278	299.161977725384	-51.8059958581922
1292.065	192.781268622025	269.549837651935	331.393621709443	-54.4277590554637
1101.762	202.324338341371	309.002875456003	369.347959146049	-56.7846152161564
939.101	213.213819968152	354.860038803879	413.987657020475	-59.0009019113917
801.2801	226.018553920942	406.693689396542	465.278565712504	-60.9370408926977
684.3433	240.827760077541	465.970311614818	524.524871984519	-62.6686912369216
582.9476	258.274916686524	534.598295119655	593.71817366009	-64.2139011146099
497.0677	278.816608455676	612.772073754287	673.22233736252	-65.5340531703709
423.5089	303.554648267776	702.909132534871	765.654408389253	-66.6426692081695
361.5036	332.26576095157	803.643848814359	869.622890474878	-67.5374001010458
308.1262	365.91853981881	919.331034892341	989.477604344511	-68.296110813358
262.7298	405.9797717481	1051.28892351689	1126.95517913444	-68.8847676520754
224.2111	452.736279062973	1199.92352589785	1282.49234164689	-69.3282942812862
191.2854	507.430758562391	1370.13593179876	1461.08125932176	-69.6778558320955
163.1722	572.324671135762	1561.24516316252	1662.8415404629	-69.8679632285199
139.1537	648.15934538335	1779.17835944608	1893.56440918418	-69.9831850411207
118.6706	738.310827166741	2026.03045681463	2156.36320907498	-69.977627350508
101.1982	843.038705881463	2301.33561947264	2450.88961258312	-69.8809120746899
86.24196	966.438878863891	2614.87778465778	2787.75715141697	-69.7160721170307
73.61024	1110.68294689244	2962.13061605475	3163.51614427469	-69.4459225166266
62.69291	1279.10077095501	3358.60494768858	3593.92904449934	-69.1510211394727
53.57697	1471.28352910146	3792.35708762284	4067.75706047552	-68.7957300107121
45.65746	1703.77321569559	4280.82132961441	4607.41515674498	-68.2973713205073
38.96512	1962.81389638061	4825.6364039022	5209.54941376805	-67.8661059881124
33.18414	2269.18647558756	5433.78084943298	5888.56362627204	-67.3342292668924
28.30617	2633.41242736221	6108.07937995738	6651.57836339964	-66.6773904505544
24.17237	3017.10319244703	6837.33730171665	7473.42579084852	-66.1896314795596
20.61345	3474.54005393476	7660.04955574146	8411.22986148945	-65.6013184155192
17.55618	4002.81098559025	8569.30729409066	9458.09300477202	-64.9622412908303
14.98558	4594.41358231171	9559.94559012606	10606.6580906288	-64.3315293499503
12.76553	5263.92930706052	10662.6211937968	11891.1918020077	-63.7253400027019
10.8809	6029.74861181396	11867.4319135905	13311.4164740413	-63.0652353269317
9.278505	6889.61277739343	13186.8845631069	14878.1950754495	-62.4147563421196
7.923394	7871.35424422237	14640.1083095707	16622.0031570807	-61.7349992139764
6.75822	8893.76681641244	16209.7675462747	18489.338876471	-61.2478704965562
5.761429	10089.7714143423	17946.5738697588	20588.4190956078	-60.6548018828163
4.919708	11479.6627453986	19872.4097035545	22949.8436633895	-59.9863320232372
4.191257	12953.6919453981	21890.9258386379	25436.406371361	-59.3855857750425
3.564097	14622.4296276031	24231.389825673	28301.5141131695	-58.8911231978446
3.051758	16431.183139773	26583.361393464	31251.5420795242	-58.27977723044
2.604164	18417.7837659163	29295.2380645473	34603.8398462736	-57.8426104327552
2.214424	20608.1987410508	32246.4465324502	38269.193476226	-57.4179914107837
1.892567	23163.5882973112	35405.9012616243	42309.9239771856	-56.8061011334738
1.607507	25845.2961067018	38950.397394766	46745.1899991142	-56.4339822342702
1.376413	28762.3641243997	42563.9383370446	51370.8325490671	-55.9513397763858
1.17375	31987.9026961636	46733.2858696156	56632.3752554177	-55.6092209473352
1.001604	35425.3503260355	51196.3796610244	62257.7283244265	-55.3186912381582
