EC-Lab ASCII FILE
freq/Hz	Re(Z)/Ohm	-Im(Z)/Ohm	|Z|/Ohm	Phase(Z)/deg
6999984	1.70844831916646	1.73223738102715	2.43299034184078	-45.3961393871472
5969734	4.56236698259825	1.88189053954045	4.93525120806575	-22.4152262132183
5091109	6.88991877099573	-3.93159884960108	7.93274543806266	29.7104056101436
4341796	2.45110954484644	-5.10771737253017	5.66539625785204	64.3644171273908
3702781	1.51465759586958	-5.77459174979503	5.96993278936424	75.3025825068948
3157797	0.836751347247675	-5.68627211927411	5.74750758429729	81.6288387060523
2693047	-0.00877184532947561	-6.61689484039636	6.61690065469737	90.075955479666
2296687	0.171325827029534	-8.98422027348412	8.98585368573796	88.9075226480557
1958656	-1.09323824587813	-7.79438415274606	7.87067939779214	97.9842054469592
1670375	7.02236787677974	-11.7664591597863	13.7026717013781	59.1707266018684
1424531	-4.74439958843319	-13.2640582968228	14.0870355276133	109.681539905012
1214875	15.2966104533623	-2.46148866876453	15.4933927152309	9.14151297342253
1036062	0.307247023927163	-13.4951255688252	13.4986227020416	88.6957574469754
883578.1	1.94198586669648	-12.1545463717689	12.3087085679177	80.9223244488765
753531.2	11.8271213354474	-0.630440212933979	11.8439121047684	3.05124204726118
642624.9	0.536724411925279	9.89528398668037	9.90982937650339	-86.8952948715563
548046.8	11.0859900196672	-1.7167300783692	11.2181253727233	8.80266573338216
467390.6	5.10977680171737	5.03626577912074	7.17452381425497	-44.5848827154435
398593.7	3.65701508898486	-3.83206785060171	5.29702778666283	46.3390101939704
339937.5	4.31561494729298	-0.299834926265306	4.32601818723721	3.97433836170101
289906.2	3.97898665088983	2.85277873960807	4.89598624437602	-35.639052017792
247234.4	5.27229844894944	5.15122520112059	7.37104144659726	-44.3345173477052
210843.7	4.0764311591213	-5.70398400963535	7.01090041130459	54.4479787360538
179812.5	5.65398342169132	-3.19185519212722	6.49272424335654	29.4461230975615
153343.8	-1.65373815245198	-13.9483491801965	14.0460419595544	96.76151351215
130781.2	13.0247051561639	12.7478109963607	18.2249726914456	-44.3844506195509
111531.3	12.0188542501756	-12.0558579932299	17.0234123911714	45.0880657102833
95109.37	-20.9598999608293	-39.4074329946027	44.63477547375	118.007476104955
81109.37	30.3677972248605	-25.2776709794643	39.5115648694948	39.7734581716766
69171.88	48.5839456636009	-12.9180088298355	50.272007403439	14.889889669989
59000	99.1653065475754	-43.4784682047594	108.27804588238	23.6747765229883
50312.5	48.9198303054444	-41.5818840520665	64.2043836387593	40.3645558106012
42906.25	38.8518910979079	-131.430085277911	137.052313946327	73.531856441043
36593.75	122.570938444416	92.466118408033	153.537024865644	-37.0304857528452
31203.13	171.620306249301	-157.271287895319	232.782704497899	42.5018602737777
26609.38	233.754887314107	-205.574947024381	311.29151319512	41.3299037517274
22703.13	-131.670915000927	-381.958179432421	404.016436166291	109.02040390521
19359.37	23.079655595284	-422.731594346422	423.361159485686	86.8749548698291
16500	-129.861009951987	-444.050450756134	462.649634953358	106.301375392637
14112.02	448.642449949502	-668.312956785784	804.936181386107	56.1263038982849
12011.13	-428.131010716718	-757.131366298693	869.795417423341	119.486623948865
10236.38	-232.126390112178	-939.074873587045	967.338761339085	103.884410229657
8750.684	157.261639757601	-1262.85037952401	1272.60453574674	82.9015498563764
7449.463	-461.124309792783	-3290.49230794151	3322.64582188715	97.9773872491972
6363.206	6.01248861281052	4.1892253380941	7.32800301941162	-34.8670085775871
5414.761	1.14944767139664	5.11781096895303	5.24530447764618	-77.3415674124269
4620.567	-2.7459482955219	11.8539343789706	12.1678261124418	-103.042448749713
3941.215	19.9238266846386	8.13017053951787	21.518795104772	-22.1985393046778
3361.769	3.09477552107449	-34.8931990170772	35.0301723257422	84.9315393245249
2867.244	18.925730199726	-12.6910887643294	22.7869918509861	33.8447487386706
2442.658	0.577166974378625	-10.3276883549489	10.3438033852766	86.8013297931548
2083.003	1.42177179689357	3.88890736243794	4.14065641125486	-69.9177532609168
1777.843	3.77110585988672	1.91860858545938	4.23111076558749	-26.9654221094513
1513.548	10.6494639725624	-0.148212727058153	10.6504952896739	0.797356142636015
1292.065	1.93687472542302	-8.93727613652106	9.14474649415779	77.7720306039087
1101.762	9.91509363823904	5.64623404661036	11.4100412253484	-29.6597160340083
939.101	10.3922627840177	2.36017192829534	10.6569009239643	-12.7953221287513
801.2801	8.19636596990873	4.22050137700813	9.219167369454	-27.2450025951633
684.3433	6.47544897840869	-7.65804960340068	10.0288166400687	49.7830022047223
582.9476	23.673453252004	46.8687224063522	52.5081853512242	-63.2015992821728
497.0677	24307.5517010735	-19327.9465668783	31055.2183729637	38.4896717471726
423.5089	34467.9644370264	-36720.4137806557	50362.9760901269	46.8122733327485
361.5036	-10371.9032231377	-5537.02940025579	11757.3411556113	151.904518701587
308.1262	-12684.5822279925	-5689.96194687534	13902.3125146715	155.8402803879
262.7298	-12005.9520092614	-4196.63715976245	12718.2800369935	160.733110775199
224.2111	1120.33890382531	12339.6800285418	12390.4343130585	-84.8122495115787
191.2854	-13771.9585744259	-4601.81237656768	14520.4517879036	161.523276870464
163.1722	-13232.2961715883	-3279.46366733537	13632.6279168032	166.080411285596
139.1537	8599.23826722254	3325.16289051175	9219.74007360842	-21.140544088079
118.6706	-14523.3090941065	-3152.67804924608	14861.5573183012	167.752416723347
101.1982	-14499.8076277286	-2759.6015052513	14760.0752609505	169.224345299038
86.24196	5448.92093422832	-10379.166222113	11722.5351700783	62.3011388113452
73.61024	-15270.9256474131	-2305.32959812749	15443.9539848066	171.415335907618
62.69291	-14749.6903762179	-1724.62503951539	14850.1750064172	173.330905704079
53.57697	22291.925289954	-35809.0618841391	42180.7876426579	58.0968318064547
45.65746	-15888.2466805882	-1618.10002154742	15970.4298709507	174.184899297722
38.96512	-15618.5633118712	-1324.28188099126	15674.6050166264	175.15354174617
33.18414	1049.93032127677	9660.55175345547	9717.4386471296	-83.7973120732839
28.30617	-17331.9381594101	-1437.70387526797	17391.4655160103	175.258106543781
24.17237	-16822.3351347781	-1094.48167590892	16857.9016940332	176.277513052878
20.61345	12902.9101450357	-2564.01012997587	13155.1981420837	11.2391572980201
17.55618	-18100.5792902295	-1021.13309209743	18129.3597083201	176.771116193383
14.98558	8472.23849113182	471.508893777309	8485.34888425495	-3.1854190225983
12.76553	-16574.0336245084	-485.387511287378	16581.1396358166	178.322514015259
10.8809	9526.94496261145	8791.21547977992	12963.3386877205	-42.7000119976458
9.278505	26599.6537870619	13095.3381663318	29648.4310425045	-26.2115929975536
7.923394	32228.7236896525	60889.7159316916	68893.0195078287	-62.1078801470476
6.75822	46300.161165441	-33241.5701504313	56997.4289772079	35.6767583702896
5.761429	76983.1930162425	16475.9694877731	78726.5493816291	-12.0802192342265
4.919708	122918.553721924	42849.1377240288	130173.036581246	-19.2184425727536
4.191257	110747.211449484	-100267.818878374	149394.043878808	42.1569224923751
3.564097	59455.5076836966	127535.039759098	140712.98362369	-65.0055569001422
3.051758	57633.5331466683	-46602.4758280449	74117.5748137486	38.959004395476
2.604164	174338.067723487	170.281170434155	174338.150882806	-0.0559624723463452
2.214424	52574.9256914752	159827.601267441	168252.74125068	-71.7914971383331
1.892567	117825.244024537	-76974.0243731146	140740.145508077	33.1561737900603
1.607507	23009.7225408449	28402.1577257	36553.110604738	-50.9876860760305
1.376413	40918.7217998092	22522.7701952421	46707.782766878	-28.8295746733771
1.17375	29965.242265515	22753.525523527	37624.9739904335	-37.2105148216533
1.001604	20092.972599659	12480.7726432688	23653.6938693223	-31.8465297802621
