EC-Lab ASCII FILE
freq/Hz	Re(Z)/Ohm	-Im(Z)/Ohm	|Z|/Ohm	Phase(Z)/deg
6999984	2.28773658931245	2.24741322228078	3.20696194142703	-44.490579591943
5969734	6.16743124291057	7.17418965595998	9.46077192176794	-49.3153597819145
5091109	17.802140362375	4.01210418197419	18.2486487567906	-12.7006695009957
4341796	2.97482583234998	-11.0400030411042	11.4337769735292	74.9193310377318
3702781	3.59555389672576	-9.52615451400508	10.1821229441094	69.3214760835241
3157797	3.62319927315049	-9.69598224779332	10.3508282143257	69.5102656770197
2693047	0.273307485849416	-9.26878644331174	9.27281505873706	88.311016287545
2296687	-1.07681273633598	-11.1353228549079	11.1872669026966	95.5234663084313
1958656	7.00928282076884	-14.2552474471932	15.8852801499449	63.8167267710253
1670375	-8.6407039516487	-12.0981829170292	14.867003553976	125.534995617384
1424531	19.0410608701957	-11.6534580504543	22.3240919993669	31.4673520410225
1214875	9.17471891644458	-5.47459711980655	10.6839450026645	30.8247225780037
1036062	11.0570314737909	3.39001463076828	11.5650397409272	-17.0452021966665
883578.1	8.24203254540228	-9.89776751730806	12.8800971388476	50.2152988611485
753531.2	13.6377754808936	-2.27493227552536	13.8262155677354	9.47037355909377
642624.9	5.56474955836188	-6.86272955388744	8.83535480765141	50.9626019837597
548046.8	5.27756180907581	-6.9367017942633	8.71610523290943	52.735499559655
467390.6	7.72875631153168	-1.75630224489038	7.925797858793	12.8026216110613
398593.7	6.6358864224806	-1.59622133441607	6.82516748223129	13.5251901456567
339937.5	4.56006714827535	1.46383692028902	4.78926204398771	-17.7972608689772
289906.2	4.38013045327001	-1.99396374271845	4.81263277166866	24.4764189628896
247234.4	2.0856174587868	-2.38593519293003	3.1689883132095	48.8423200966765
210843.7	1.02789144811481	2.78686402357552	2.97038245264934	-69.754288401966
179812.5	1.16444679828233	2.04568030077465	2.35387855230626	-60.3505039978223
153343.8	1.18031391550052	1.64825598332001	2.02728604929704	-54.393599311718
130781.2	1.4727263508881	-1.80357773660678	2.32847923688055	50.7663582093494
111531.3	2.08633758984661	0.49160723733576	2.14347433262165	-13.2588449850121
95109.37	1.65170604579584	0.546883153342805	1.739889089893	-18.3198098372925
81109.37	8.77692911120748	14.3412911503571	16.813896528838	-58.5331964632264
69171.88	1.5375545184213	4.85229912422469	5.09007668783776	-72.4180837830882
59000	1.72731835119085	0.688559943505087	1.85950086909375	-21.7336814567543
50312.5	1.07852573465909	-0.384940864286295	1.14516253401838	19.6421906988764
42906.25	1.31830650127768	0.839445617561202	1.56288226560855	-32.487377344538
36593.75	1.4211969251635	3.04487238695192	3.36021555155566	-64.9791435457867
31203.13	3.41995672656017	0.0395003755468584	3.42018483290195	-0.661734740697369
26609.38	0.721712252251674	-0.984014211285796	1.22030838031319	53.7423067268369
22703.13	2.37941373481975	-0.45983816580104	2.42343988169217	10.9379648442757
19359.37	0.113303496896769	1.116904868971	1.12263714918943	-84.2074925588181
16500	-0.191964488937146	1.65997375618497	1.67103657537342	-96.5965589629319
14112.02	1.29173642966202	0.360568557526913	1.34111620987632	-15.596266417294
12011.13	1.6281879047366	1.17508264864599	2.00793801803727	-35.8184336442916
10236.38	0.498450862005635	-1.40878550561749	1.4943660403904	70.5154055370178
8750.684	2.64629695135413	0.720476901003484	2.74262183314174	-15.2301177383156
7449.463	0.903752064663896	1.16537825947546	1.47474549737991	-52.2063844950076
6363.206	-2.06384467990883	1.955221038304	2.84294638912072	-136.54816117227
5414.761	3.25156706801552	1.93976829972728	3.78621043451495	-30.8187867352462
4620.567	9.27814762522927	-4.3229959823421	10.2358349741921	24.9823693438799
3941.215	1.04126788477419	0.985928778440303	1.4339785089111	-43.4363086010125
3361.769	1.5266288918041	0.0923136770424669	1.52941740158143	-3.4604032408778
2867.244	1.43313319537597	-1.06455054903186	1.78525589962128	36.6054599308392
2442.658	-0.121179746435613	-1.07449622823591	1.08130785414673	96.4345264984689
2083.003	2.02901334765548	-0.12676638285621	2.03296947364847	3.5750137075112
1777.843	1.77388714676266	-0.507413684767559	1.84503231867064	15.9629765949116
1513.548	4.60095043631161	1.73165958523246	4.91603395396364	-20.6248305062597
1292.065	1.59735897597242	1.02027883456681	1.89539563109781	-32.5675341400768
1101.762	1.6088784694808	1.62360523896491	2.28573487122921	-45.2610302094774
939.101	2.23358104183603	1.84094921082131	2.89447374617096	-39.4958314720459
801.2801	-0.211876389627374	1.65283089163141	1.66635577258058	-97.3049066850521
684.3433	2.77180044732736	-0.519282352458041	2.8200233831262	10.6110637742638
582.9476	2.18197528098906	0.503324666211817	2.23927484835259	-12.9894287705857
497.0677	4.24153216746863	-0.504798656173814	4.27146541727146	6.78703458757963
423.5089	18.1124280160314	4.67502740272405	18.7060399297163	-14.4728222317574
361.5036	3.74798934868178	0.961716023466218	3.8694084648204	-14.3913361741339
308.1262	9.50606442005902	-2.02417321284753	9.71918401687721	12.0207404855139
262.7298	7.37995330487429	-8.79467102393417	11.4808514144793	49.9986692483875
224.2111	3.64588743745531	-0.475088027975603	3.67671100862173	7.42426105859028
191.2854	29.0166091020345	1.68797120958482	29.0656644614338	-3.32929158974463
163.1722	20.5229617740653	21.2725244883243	29.5586240898676	-46.0274357449783
139.1537	6.81664317254297	-1.43011939739229	6.96504598926485	11.848704177948
118.6706	9.93210954544667	-8.82047058970733	13.2833542995226	41.6075189922021
101.1982	13.3274427677424	-6.00827246432072	14.6191678536422	24.2667851648072
86.24196	31.8006542352908	-0.5573180379452	31.8055374610765	1.00402660300206
73.61024	247339.036575257	95985.9474949329	265310.951772588	-21.2099579249591
62.69291	251154.791951661	-37251.1985884839	253902.306638914	8.43658580933922
53.57697	286568.805311533	-14921.52920868	286957.021540866	2.98067771112846
45.65746	193630.991334328	-149526.061800567	244644.648342655	37.6761003259766
38.96512	189471.783783726	-178858.231096683	260556.757120635	43.3494596584266
33.18414	269577.392683333	-146962.396235866	307034.064157923	28.5973835269004
28.30617	256299.908403262	148423.763146971	296174.368428851	-30.0752135678813
24.17237	253165.249388772	-69666.3543539792	262575.787968071	15.3859106923897
20.61345	160279.423533622	17298.6149272646	161210.222029101	-6.15996665827665
17.55618	181299.671178857	56078.6469953835	189774.564729825	-17.1876051270683
14.98558	21.9955973669636	21.0274766535386	30.4296085736358	-43.7109272722187
12.76553	30.5847186238686	2.6499415635361	30.6993029821749	-4.95189259569465
10.8809	14.6270565975972	16.7547777398403	22.2412536027257	-48.8787774011807
9.278505	11.4256031453728	-0.799826531364899	11.4535640617158	4.00434416143202
7.923394	64.0991385353763	33.5101077056322	72.3299860322151	-27.5999213013571
6.75822	1034998.9892782	-862286.315961963	1347130.50537138	39.7986167484608
5.761429	328587.258190264	-377095.53953494	500170.603076733	48.9322973888238
4.919708	1119500.24399899	-923407.387514524	1451193.30195195	39.5171397724468
4.191257	1570520.16237174	1054742.38967647	1891828.50411885	-33.884832866018
3.564097	2960295.48956625	-1860321.43706067	3496304.51115657	32.146249732473
3.051758	1389417.35574122	-1580276.63602297	2104223.09530026	48.677285333367
2.604164	1319103.33002192	-9055246.56797962	9150820.9468977	81.7118602905667
2.214424	3739935.50118335	-2887876.23528234	4725139.86071524	37.6743413455455
1.892567	4689422.48303607	217506.379743149	4694464.00024893	-2.65560896014539
1.607507	2466356.52500987	-3380982.6441105	4184968.11794728	53.8900267055775
1.376413	7276697.61992602	-1133387.9822912	7364434.57233745	8.85301726441826
1.17375	9047630.51044929	135830.699267635	9048650.05580813	-0.860108199232128
1.001604	19159087.7133335	-6718825.45876616	20303035.6733315	19.3250585592715
