EC-Lab ASCII FILE
freq/Hz	Re(Z)/Ohm	-Im(Z)/Ohm	|Z|/Ohm	Phase(Z)/deg
6999984	2.13880814869626	1.47923447969105	2.60050667040798	-34.6683641100153
5969734	5.43600723105324	1.93835880010362	5.77125718141223	-19.6250993678477
5091109	7.57958911145246	-3.32659922654401	8.27746540388372	23.6961478487466
4341796	2.78744343106213	-6.05282550172805	6.66382303454563	65.2730135989093
3702781	1.61641153003774	-5.36505711893558	5.60326905688816	73.2332308382208
3157797	0.410173296214549	-6.01792614946022	6.03188836711063	86.1008315928279
2693047	0.230035548806066	-7.16658626383404	7.17027719343466	88.1615315987954
2296687	0.0636092217213525	-7.14103579168509	7.14131908762068	89.4896477679086
1958656	-6.39121009120455	-9.63661519089718	11.5633869937551	123.553191899806
1670375	-2.78002035242491	-11.4651430720749	11.7973733866079	103.629787785501
1424531	-2.35118614769794	-12.3243374227406	12.546607876661	100.800865967822
1214875	12.8620921680248	-7.14225751345771	14.7120786202123	29.0432019872917
1036062	-3.48556389911718	-12.3727376843052	12.8543297569128	105.733230442986
883578.1	-5.73671517551545	-11.5697599747636	12.9139167907584	116.373916135258
753531.2	3.93306634345059	-16.9633314430905	17.4133174470038	76.9462265337866
642624.9	4.34128172131422	-10.1358843643804	11.0264626617927	66.8141554762521
548046.8	5.92278524381551	-7.36177599299454	9.44855178402434	51.1822052474774
467390.6	4.32315680819343	1.20521133479846	4.4880083722912	-15.5774275649901
398593.7	1.22224728978974	-5.09037876523705	5.23505916021725	76.4983454253328
339937.5	3.6405931041968	-1.63026633815879	3.98894553530867	24.1229498399175
289906.2	2.15822135790049	1.53961697442123	2.65110163094963	-35.503037566806
247234.4	3.58225391418647	-0.312091455325449	3.59582315780288	4.97912413378163
210843.7	6.02968360586148	19.2006982773299	20.1252055573068	-72.5659068942319
179812.5	15.7144723870573	12.7427266899852	20.2317010134899	-39.0382902951662
153343.8	13.1753138708216	-13.4719646041388	18.8436388707127	45.6378187147114
130781.2	16.0446536198982	-19.4321667870485	25.2000003139322	50.4543655011668
111531.3	13.372545530752	-6.58207387614615	14.9046526455024	26.2067801520745
95109.37	1.52772153505955	-0.846309332974654	1.74647432725612	28.9850639598198
81109.37	1.07618919494706	2.31465383385611	2.55260759888895	-65.0641131868046
69171.88	1.20796488887074	-0.850393214567287	1.47727715481103	35.1450993730318
59000	2.67856747453355	-0.643629668062208	2.75481085834199	13.511376133216
50312.5	1.41533401102391	-0.948613731213107	1.703830500316	33.8315821685385
42906.25	1.26285389652059	-0.829149465175071	1.51072459421211	33.2876217674193
36593.75	1.01344141270359	-1.07763662080956	1.47931206426924	46.7584038408503
31203.13	1.18396198263086	-0.806401079255762	1.43249735669566	34.2589284696148
26609.38	-185.563630237193	-750.001812498535	772.616709383051	103.896900709591
22703.13	-207.988324463645	-866.699397025788	891.306337864855	103.494512450071
19359.37	-226.45031307803	-1001.38418965393	1026.6693915677	102.742390752403
16500	-226.926238651428	-1169.09165701918	1190.91176008147	100.984785420059
14112.02	-254.406248557156	-1348.18461287532	1371.97823951355	100.686217113017
12011.13	-282.419684696032	-1555.13571652617	1580.57204047116	100.292996178218
10236.38	-319.853059210621	-1801.9332709509	1830.1009514358	100.065474637772
8750.684	-356.21652710322	-2082.23814908301	2112.48808841094	99.7078343820512
7449.463	-437.41608580491	-2326.46672655267	2367.23050459342	100.648287306979
6363.206	-438.081198755014	-2779.55162781779	2813.86253900349	98.9566294168552
5414.761	-517.135424244713	-3236.54817050436	3277.60173099233	99.0779818778639
4620.567	-524.114803691591	-3763.9125188777	3800.22812173335	97.9273107379027
3941.215	151.829918451628	-192.079234838752	244.840267507754	51.6752297006095
3361.769	11.1173333304901	-104.731951834553	105.320353377001	83.9407234094052
2867.244	45.7480765132202	-30.8160934797353	55.1590257529195	33.964370867138
2442.658	36.8194245470092	22.1205175756059	42.9533156087582	-30.9967703447256
2083.003	11.9738865172936	3.38717916894112	12.4437510844413	-15.7951744454516
1777.843	9.58718086448724	-51.6557953142607	52.5379408282927	79.4856900733654
1513.548	36.4417147186107	-27.9620702926236	45.9333859701442	37.4993657644905
1292.065	21.2784477550392	24.075723567408	32.1311811821193	-48.5293189827745
1101.762	61.2464572934141	-2.88245619371087	61.3142486270741	2.69453628570438
939.101	7.44325757468995	13.5136955881788	15.4279633060603	-61.1543064886113
801.2801	23.5507689072732	-14.6578558722455	27.7397089908187	31.8978839874397
684.3433	9.30549935876341	-8.01088505973303	12.2787050520892	40.7243847650993
582.9476	13.9897466251803	-15.9619571148634	21.2249166211197	48.7672798142482
497.0677	15.3078528610473	8.56795375601832	17.5425252110619	-29.2361627135358
423.5089	16.8225002949055	-3.42205143635425	17.167030966511	11.4982831904459
361.5036	12.3861486935394	5.96811365222058	13.7490021464938	-25.7265211986179
308.1262	17.1925396553425	-6.55989555849181	18.4015121535934	20.8845923818381
262.7298	34.7203154926968	3.83407074330089	34.9313670842845	-6.30148723367397
224.2111	22.1660125575177	-31.8105345398679	38.7716677538142	55.1306923264199
191.2854	7.30786159076225	-8.39707627219683	11.1317442905786	48.9673910537756
163.1722	2.12694689880431	-9.25217201264656	9.49350251814017	77.0534269372556
139.1537	7.9874044730669	5.04740369786253	9.44854032671531	-32.2896266911265
118.6706	21.3893732339096	20.4125862228936	29.5665176110842	-43.6614122595635
101.1982	8.26205143564593	12.5681339918906	15.0405946013905	-56.6798441537387
86.24196	50769.3304634603	-82263.6363721984	96668.6649586375	58.3190248394065
73.61024	4452.50703300081	-200130.697055606	200180.220608435	88.7254939565427
62.69291	-25897.4041581476	-169615.728889917	171581.383107225	98.6810367173973
53.57697	-58276.6172500034	-191274.401504827	199955.146943341	106.94469240501
45.65746	118053.131549094	-23886.1647773109	120445.384869312	11.4384606670563
38.96512	-82246.9600100188	-276915.198883781	288871.233949892	106.542017666592
33.18414	70767.4486774129	-270516.483612196	279619.741252684	75.3398820593578
28.30617	-90231.5722055854	-401931.418086806	411935.190858905	102.652837449024
24.17237	-121102.413932378	-345077.147378122	365710.311999636	109.33816629839
20.61345	382726.983883084	-429541.531191464	575313.715472307	48.2985545012076
17.55618	-185706.214714469	-910887.637312453	929625.23954131	101.523193860144
14.98558	56766.7835336736	-706417.99379081	708695.174009385	85.4056618999956
12.76553	-857068.050383921	-600532.306106172	1046520.27866931	144.981756141919
10.8809	-283974.390261178	-1112353.44638714	1148029.46130034	104.321233252665
9.278505	-139845.327905225	-1194057.05234962	1202218.34955335	96.6799243221234
7.923394	-117563.872027821	-1137817.36911094	1143874.8312017	95.8990974389191
6.75822	-197107.525810691	-1050806.63771228	1069133.27821717	100.623936600686
5.761429	-466276.440066049	-1036156.72289723	1136236.97922828	114.228017305154
4.919708	125268.950082478	-1266403.8086542	1272584.34550666	84.3508465991598
4.191257	-190208.614781171	-1593642.47432906	1604953.47381867	96.8063188117293
3.564097	39722.719317538	-1725619.87261301	1726077.00847527	88.6813189105381
3.051758	285771.153984868	-2365042.80252683	2382245.2875877	83.1102783811425
2.604164	-572216.970783153	-3850449.74563574	3892736.24913358	98.4528849233762
2.214424	-1262.16889430971	-5642914.95119957	5642915.09235625	90.0128155306426
1.892567	163620.315753856	-2167061.4015514	2173229.56123399	85.6821713319258
1.607507	-2108513.16529714	-1319919.14668318	2487571.97323258	147.953630929483
1.376413	-701138.198388965	-2277097.1007226	2382596.47849974	107.114058729251
1.17375	1552450.34939342	-4238340.88600454	4513716.37936075	69.8828601311933
1.001604	3653934.49111661	1076874.28449452	3809316.93220414	-16.4211079183202
