EC-Lab ASCII FILE
freq/Hz	Re(Z)/Ohm	-Im(Z)/Ohm	|Z|/Ohm	Phase(Z)/deg
6999984	1.58138914026735	1.54190681681138	2.20868020425884	-44.2757490666587
5969734	4.59799099632415	1.23196495478144	4.76017424597961	-14.9992673130795
5091109	6.19058748240161	-2.34513181329629	6.61989551269519	20.7477987082506
4341796	2.5093015487229	-5.12012070177278	5.70194968963646	63.8911539886127
3702781	1.20261085900534	-5.17670077059085	5.31455583717336	76.9214747570369
3157797	0.911262905331964	-6.26081182381375	6.32678154955899	81.7187357841083
2693047	0.75080389116867	-6.8577435366605	6.89872110594442	83.7519911116891
2296687	0.832037531653905	-7.58247888308634	7.62799268920277	83.7378963499288
1958656	2.33486292004137	-9.04250896481424	9.33908738764822	75.5219107508709
1670375	12.6888959694809	-12.5246359720371	17.8290377518349	44.6267372823779
1424531	14.2346402510069	-4.23206400305004	14.8504326132776	16.5576036538542
1214875	8.87212954771552	-7.95473423002179	11.9160597255018	41.8793416293681
1036062	1.10338907014141	-11.6904116635077	11.7423674062084	84.6081619449531
883578.1	1.70937650067409	-12.5223682785547	12.638499726028	82.2268347568303
753531.2	9.79948195318875	-4.97957677597296	10.9920894928435	26.9372612338206
642624.9	0.432380786049568	-8.36532256192721	8.3764894024426	87.0411699261966
548046.8	8.53577035603344	5.73040266548557	10.2808992933276	-33.8750352877212
467390.6	14.8580387905087	-11.276980510187	18.6529248678967	37.197835265647
398593.7	11.3116705379942	7.21264372306194	13.4155178743107	-32.5227460292314
339937.5	18.7876354492005	-8.48569523231145	20.61509809212	24.3069724245577
289906.2	-11.7262255287729	-62.4138412465635	63.5058418124102	100.640609672524
247234.4	-13.3141672654333	-72.5949404702582	73.8057750575947	100.392748130351
210843.7	-16.3545543105503	-83.9779559942053	85.5556458666605	101.020308803357
179812.5	-18.8194855591064	-98.4022420632529	100.185698978369	100.827107434839
153343.8	-20.0739195296683	-112.932804405677	114.703010231705	100.079111033296
130781.2	-25.2663903479842	-129.770587848612	132.207397492694	101.0176731975
111531.3	-28.5319417904978	-151.70403360577	154.363808953385	100.651553166411
95109.37	-35.8974098938923	-174.636061673511	178.287346926035	101.615669248278
81109.37	-42.1295233343238	-202.771788947475	207.102136950193	101.737250892405
69171.88	-50.1830001629624	-232.801444094354	238.148789368689	102.164620111793
59000	-60.9384955008507	-268.168999007162	275.005658600711	102.802436729332
50312.5	-74.2849506972692	-309.158636251636	317.958041680136	103.510956338791
42906.25	-89.2447420310419	-350.237270256699	361.428788915675	104.295450151884
36593.75	-106.974576457589	-402.771575016622	416.735529622387	104.874137524966
31203.13	-129.323104210062	-460.417419096049	478.234947582873	105.68911269276
26609.38	-261.352885401778	-527.237414889004	588.459533329756	116.36772819107
22703.13	-296.192683482423	-598.194427815221	667.507812102374	116.342059681848
19359.37	-335.813621289389	-675.693294632305	754.541063597304	116.426972027087
16500	-386.603920147712	-762.5025946408	854.910988294998	116.885911220987
14112.02	-453.468067151871	-859.753301616543	972.012874177601	117.808946228942
12011.13	-557.002714932885	-962.724045860294	1112.24530249411	120.052362475777
10236.38	-652.437604834018	-1068.04694823865	1251.55867295283	121.419497070739
8750.684	-765.166278952448	-1170.51647993321	1398.42349245183	123.17263333228
7449.463	-918.492178434958	-1274.15504341306	1570.70014850102	125.786466793667
6363.206	-1099.93785546705	-1362.70891354826	1751.23923806924	128.909430551807
5414.761	-1232.80438421708	-1450.57382189185	1903.67304506388	130.360331576417
4620.567	295.488608805221	-438.304405042131	528.605968007344	56.0136088295606
3941.215	98.5465707033704	35.8318024029115	104.858689009713	-19.9814046319057
3361.769	24.4288815445832	-7.93321808728832	25.6847464994256	17.9910753023361
2867.244	-7.45471256009759	-12.7149127990337	14.7391230010712	120.382959123567
2442.658	10.9162997763909	3.99743049305722	11.6251903792951	-20.1121822486443
2083.003	6.18981334018441	20.2405120316565	21.1658242572775	-72.9956825363596
1777.843	13.7896081808833	-12.0146096031286	18.289454275562	41.0649852559928
1513.548	198.308141562402	-955.640690253126	975.999614691218	78.2767491256394
1292.065	-3161.14357201778	-1324.33713184276	3427.34555037668	157.269122537397
1101.762	-3641.46572196431	-1153.13615754748	3819.68527526606	162.42866477833
939.101	-3980.4182465172	-1136.44866554797	4139.4739987869	164.06543331168
801.2801	-4058.05420492386	-1037.64239024777	4188.61619871519	165.656823587656
684.3433	-4208.56649317062	-883.168241465138	4300.23465291966	168.148445151341
582.9476	-4264.61810794685	-877.709268153991	4354.00288998889	168.370237113836
497.0677	-4523.56056490099	-739.749060433378	4583.64798569212	170.712488580331
423.5089	4439.31779842739	1291.49334856733	4623.3643145255	-16.2208534393441
361.5036	-3852.19176564962	-611.256734952854	3900.38667254466	170.983612208987
308.1262	-4442.45945957234	-435.655202547965	4463.76987595137	174.399128217321
262.7298	28252.5306019907	-751.122659074154	28262.5135234889	1.52290864142844
224.2111	-4211.0372585251	-537.912459490028	4245.25436302245	172.720533764926
191.2854	-4612.3230364611	-673.625102788011	4661.25461348936	171.690756719738
163.1722	-4247.07556919857	-398.179925675734	4265.70019383624	174.64395308318
139.1537	-4140.05251119485	-312.156025503199	4151.80396691712	175.688111369027
118.6706	-4699.95229200154	-235.394614252556	4705.84340703233	177.13276715367
101.1982	-5184.96157231579	-318.656619293321	5194.74431973421	176.48314760555
86.24196	2605.39906902957	-3661.24096062752	4493.63880175932	54.5637219402482
73.61024	-5664.63613937832	-385.253158444734	5677.72160180847	176.109292644227
62.69291	-4694.54896477672	-132.067386828769	4696.40626195711	178.388576049037
53.57697	2207.41180688113	-5010.54437652287	5475.23714867796	66.2239516514879
45.65746	-5178.63164453966	-158.016198723902	5181.04186712351	178.252269389576
38.96512	-1334.10839963386	-4175.78094418924	4383.71893668237	107.718013541098
33.18414	-5261.34321927833	-92.2284463239259	5262.15151410119	178.995739424538
28.30617	-4520.47259633516	-84.6360890380724	4521.26484092502	178.927385559578
24.17237	11813.0829552617	1657.23867193484	11928.7622544693	-7.985816993598
20.61345	-4357.8430965645	-98.2539911722721	4358.95059630826	178.708401090279
17.55618	3774.72536514362	-2724.01865863622	4654.97897254724	35.8159813849284
14.98558	-1438.63288996526	-4478.50765206655	4703.90214414675	107.808598168508
12.76553	1755.82202856428	4655.35871915963	4975.46739513457	-69.3354562537253
10.8809	3718.36183225747	-2677.64312534507	4582.13786591989	35.7581756729777
9.278505	-4808.53990277464	-38.3761059755719	4808.69303679136	179.542742231549
7.923394	3951.77324598929	-2834.27785850585	4863.08983743188	35.6487235453739
6.75822	-1441.55717513516	-4608.98711217747	4829.166521192	107.368165511391
5.761429	-4851.35876684209	-77.3792012363958	4851.97582695953	179.086209460389
4.919708	-4813.78587201365	-96.2146523892383	4814.74731226184	178.854963694274
4.191257	-4783.26667966768	-121.888000236843	4784.81941283272	178.540295273188
3.564097	-4784.1972469395	-146.220208329955	4786.43120152662	178.2494046006
3.051758	-4782.88868933652	-182.894198829335	4786.38428279099	177.810117859073
2.604164	-4755.96777784469	-228.517491084301	4761.45458317398	177.249134881861
2.214424	-4747.26352129524	-288.140021269222	4755.99995925962	176.526635102201
1.892567	-4755.32789307347	-356.538676109981	4768.6752036813	175.712175596422
1.607507	-4780.6347262572	-442.435928903465	4801.06425046373	174.712478835478
1.376413	-4817.15240477321	-547.929058954071	4848.2144697258	173.510757155971
1.17375	-4852.15308068659	-665.744749123774	4897.61223346665	172.187453832336
1.001604	-4919.67017875526	-802.414573865133	4984.67890802256	170.736438216168
