EC-Lab ASCII FILE
freq/Hz	Re(Z)/Ohm	-Im(Z)/Ohm	|Z|/Ohm	Phase(Z)/deg
6999984	47.3899345993975	56.2958986187943	73.5869152949948	-49.909299291503
5969734	45.5787636063441	50.6226519829168	68.1181076195347	-48.0012982675158
5091109	45.9416450591473	47.6882355698176	66.2178417233836	-46.0686829766497
4341796	48.5834810869821	45.292988104388	66.4214529045653	-42.9925298703719
3702781	52.8295186279457	41.5510700012374	67.2119740575159	-38.1854884537376
3157797	56.2176047021391	38.1950492306521	67.9652916140136	-34.1927518442772
2693047	58.7769440496693	34.7791743578018	68.295827989917	-30.6134214727375
2296687	61.860612186415	31.7796382358734	69.5462489749161	-27.190915379303
1958656	64.3090940466468	28.7118497825635	70.4274796868165	-24.0591567190077
1670375	66.5147570376421	25.7606614981494	71.3289883890049	-21.1710082540461
1424531	68.3695987813656	22.8315144243517	72.0810660883584	-18.4663552525531
1214875	69.6543522312704	20.1481354178724	72.5098348196629	-16.1329789023048
1036062	70.8544120470644	17.8593939317832	73.0705526059972	-14.1471472914271
883578.1	71.6589366606451	15.7866638144613	73.3772577691833	-12.4239652634152
753531.2	72.3901568396251	14.0024096578372	73.7319624280503	-10.9475103211426
642624.9	72.965517095717	12.4623989080226	74.0221458185863	-9.69250356668804
548046.8	73.447059230913	11.1545029549542	74.2892552516265	-8.63559696989996
467390.6	73.8416645306641	10.0665113426089	74.5246675354544	-7.76302808453933
398593.7	74.1582487285818	9.16097558571058	74.7219467638002	-7.0422299895309
339937.5	74.4365628559198	8.45807591159648	74.9155587173294	-6.48259919271482
289906.2	74.7074021866352	7.91461428869717	75.1254754448484	-6.04744347689091
247234.4	74.9245987262857	7.51968433031599	75.3010036236074	-5.7312051514464
210843.7	75.1302875326166	7.29495915431548	75.4836176517579	-5.54588882810488
179812.5	75.3774336036837	7.21623796024347	75.7220680315626	-5.4685297854797
153343.8	75.5839962753147	7.24073778996173	75.9300255280464	-5.47207868606274
130781.2	75.8215952147938	7.44267531597724	76.1860073555184	-5.60621440843862
111531.3	76.0822509840506	7.77023296816395	76.4780062186483	-5.83136390361322
95109.37	76.3343489968829	8.23345203748337	76.7770966449725	-6.15614502978313
81109.37	76.6939339782291	8.70243460362502	77.1860860329589	-6.47364386237692
69171.88	76.9657319588812	9.60362197625129	77.5625776455958	-7.11248607436984
59000	77.344911968387	10.5361053330087	78.0592398309501	-7.7572182924967
50312.5	77.7625515286979	11.6507509015945	78.630492919887	-8.52094238551633
42906.25	78.18080514471	12.9243188686438	79.2418848292586	-9.38685350129755
36593.75	78.6753753518014	14.4638256886185	79.9938556409027	-10.4170430760987
31203.13	79.3048075231863	16.2189225222666	80.9463151976229	-11.5583864631552
26609.38	79.8623292247296	18.2855045084826	81.9289405785821	-12.8963116697211
22703.13	80.5388504908987	20.6574518750411	83.1458763641648	-14.3857097285857
19359.37	81.3341458097287	23.357563935095	84.621622931614	-16.0230225718413
16500	82.2216474137335	26.4934471542225	86.3846169496739	-17.8599710996543
14112.02	83.1571978010915	29.9817457072086	88.3969717907892	-19.8264138187449
12011.13	84.2599789004404	34.1430378582197	90.9147462103397	-22.0583136138975
10236.38	85.4825114890782	38.874224274304	93.9066828474378	-24.454251225796
8750.684	86.8120223777674	44.2129039190288	97.4223182965344	-26.9895035255807
7449.463	88.3522404893582	50.4969907092881	101.764750627038	-29.7497678106691
6363.206	90.0869631183705	57.5674410739912	106.909640330973	-32.5794230143257
5414.761	92.0849966634287	65.8865396745427	113.228453671278	-35.5836068919572
4620.567	94.2290528028743	75.2740098927536	120.603859629206	-38.6192862595871
3941.215	96.8962497636872	86.1433150819474	129.65166389821	-41.6379373215456
3361.769	99.8337776735119	98.5932427283419	140.311833699991	-44.6418003428118
2867.244	103.231389097814	112.89371275045	152.976174856235	-47.5598228272116
2442.658	107.262410479001	129.433833367862	168.102177029523	-50.3513018529787
2083.003	111.896848030061	148.207440477889	185.705008042512	-52.9471387100205
1777.843	117.291011720884	169.771497206925	206.348110469637	-55.3603452698643
1513.548	123.034594185497	194.618475975838	230.247394247031	-57.6996001670905
1292.065	130.800720615215	222.825341977207	258.379491331489	-59.5866366653539
1101.762	139.422913223306	255.425995335218	291.000322722605	-61.3723169296586
939.101	149.42595629182	292.207016964798	328.196674537069	-62.9161517086386
801.2801	161.196182629678	334.360844789142	371.189148309173	-64.2611701327082
684.3433	174.783611561819	381.793471220811	419.899470751546	-65.4018718070342
582.9476	191.258113950521	436.833173324489	476.86778824812	-66.3548152118958
497.0677	210.458579580095	498.96152767261	541.530626849725	-67.1303135876053
423.5089	232.947907416366	570.388921946514	616.12356702935	-67.7848032769833
361.5036	258.227997466899	650.139655542051	699.545045285935	-68.3375929577255
308.1262	289.802235365652	741.071693063105	795.721427311309	-68.6416043638219
262.7298	326.333670986745	843.919272172751	904.816778560318	-68.8590991428536
224.2111	368.729052703473	959.438575551473	1027.85382937645	-68.9773576317686
191.2854	418.774991673732	1089.51895620535	1167.22921895493	-68.9748939132495
163.1722	476.993003647213	1236.32612395965	1325.15078776473	-68.9026439352835
139.1537	546.075471678282	1400.53585766044	1503.22955976834	-68.6989574391145
118.6706	624.907322326957	1584.51171606402	1703.28698105809	-68.4764779272652
101.1982	716.847560831368	1789.46162618651	1927.70416222613	-68.1692579575161
86.24196	824.501692962741	2019.65091810624	2181.46576244181	-67.7927673903356
73.61024	946.137232686438	2272.89800323263	2461.95877223288	-67.3995464555373
62.69291	1089.17045418242	2557.27024157799	2779.55452666867	-66.9302940213252
53.57697	1248.28797467922	2864.58139359059	3124.74789834863	-66.4540515020124
45.65746	1431.89443641278	3211.50303635488	3516.25844180238	-65.9696156862293
38.96512	1638.83364695851	3591.81131212834	3948.02282469801	-65.4742363765592
33.18414	1873.06695684737	4016.98319460663	4432.21545173354	-65.0009732377812
28.30617	2136.81147222594	4478.45036639695	4962.1044882305	-64.4927023777206
24.17237	2422.29069122867	4985.89593868201	5543.16250025009	-64.0881941743582
20.61345	2743.91756271672	5553.49280708137	6194.38180525626	-63.7065469870216
17.55618	3103.98738729646	6186.52794659174	6921.55081859955	-63.3555530417244
14.98558	3493.52745260046	6875.09474413702	7711.78719901771	-63.0629434957511
12.76553	3932.98805445071	7660.85351672894	8611.45003127988	-62.8245930529767
10.8809	4410.39923917846	8522.36587186127	9595.95443417754	-62.6380379948821
9.278505	4961.71890177373	9504.23514030255	10721.4336756975	-62.4330336957843
7.923394	5528.17605496263	10549.9138277741	11910.5588562469	-62.3453711531293
6.75822	6185.74494667714	11764.9761291406	13292.0315928225	-62.2656727238266
5.761429	6929.13723070484	13111.5366359836	14829.8798281942	-62.1446067417155
4.919708	7745.48598529176	14574.8701926078	16505.1323617751	-62.0125972657173
4.191257	8594.89310664869	16298.7498329652	18426.1073922926	-62.1957718728206
3.564097	9641.35821432274	18210.3052182489	20605.1208285386	-62.1012338366241
3.051758	10686.3262768464	20261.5060781384	22906.9028428039	-62.1919330555933
2.604164	11948.3925000539	22611.7603972611	25574.5144938958	-62.1473569391321
2.214424	13323.7305127072	25313.7737259821	28606.0996122412	-62.2402333977228
1.892567	14864.4099363322	28188.1614942415	31867.2736703467	-62.1960583517182
1.607507	16637.6023665492	31610.7237074224	35721.8093860655	-62.2409209470769
1.376413	18462.7190942078	35182.8695655456	39732.9373092126	-62.3111082769805
1.17375	20638.2138074383	39269.3373274405	44362.3345113606	-62.2755848936824
1.001604	23034.5932994193	43871.5435595519	49551.0325095987	-62.2984459097081
