EC-Lab ASCII FILE
freq/Hz	Re(Z)/Ohm	-Im(Z)/Ohm	|Z|/Ohm	Phase(Z)/deg
6999984	-6.9162085771531	25.0832731375167	26.0193107590103	-105.415124275129
5969734	-0.827722964661444	27.1802691913833	27.1928696283104	-91.7442939875279
5091109	3.94901725674343	26.482120785508	26.7749408700055	-81.5185443304896
4341796	7.76494942373141	24.5603118980788	25.7585589675358	-72.4552114482127
3702781	10.6109466345248	22.8386120461827	25.1832164084886	-65.0801560050682
3157797	13.1486433466026	21.2285486287915	24.9707448575552	-58.2265494512723
2693047	15.4403612500339	19.6224689400378	24.9689015143698	-51.8018018071319
2296687	17.1534166637384	18.150339627991	24.973476567175	-46.6175135190276
1958656	18.5612979355073	17.0229904627341	25.1853923007962	-42.5246468052901
1670375	19.7787724912312	15.9652228619133	25.418264737988	-38.9101139068175
1424531	20.7856940978148	15.1526344949234	25.7225078727692	-36.0918032675044
1214875	21.6392425870348	14.5459555462049	26.0737730774184	-33.9090976286417
1036062	22.4352758391112	14.1861502944308	26.5440852574201	-32.3057611826374
883578.1	23.1671275567732	13.9933280420935	27.0652734869877	-31.1326702041527
753531.2	23.8162218599818	14.032355105525	27.6427099520186	-30.5063012833598
642624.9	24.4393883498366	14.3203595177554	28.3258962723494	-30.3683445054482
548046.8	25.051041706705	14.8528927821248	29.1232401114362	-30.6639219728003
467390.6	25.6984831478358	15.6477489413242	30.0876068013113	-31.3371416525011
398593.7	26.2764173661151	16.7097513873844	31.139458907092	-32.4531774937466
339937.5	26.858055320726	18.0056376641337	32.335091206045	-33.8378961634408
289906.2	27.0019624714108	19.6175942500597	33.3759791087461	-35.9993336089483
247234.4	29.4010616461269	22.1296692156765	36.7987049434435	-36.968142215157
210843.7	28.3820832510758	24.0684938038	37.2133718393611	-40.2985166951344
179812.5	30.8735791169983	27.8477569402468	41.577343037965	-42.0502434804997
153343.8	31.5757757023349	31.6869433823116	44.7335667269891	-45.1006822409321
130781.2	31.07204058736	35.7239473368896	47.3462999567169	-48.9838464016518
111531.3	10.4961438793796	39.2350781207647	40.6147804558777	-75.022979102871
95109.37	12.0085192258182	44.8036903175524	46.3850751866156	-74.9959354949408
81109.37	13.7836573050828	51.3197773764245	53.1385806986763	-74.9660843938145
69171.88	15.7585969732421	58.5516178758797	60.635182315617	-74.9363478842472
59000	18.1494097134134	67.0243761146051	69.4382320231254	-74.8483415669151
50312.5	21.4662147350554	76.6111644743463	79.5617301041578	-74.3472899750732
42906.25	22.5006835016572	86.5111552865865	89.3893771488628	-75.4209555873688
36593.75	26.3065069971476	100.178959518404	103.575365027506	-75.2865969844107
31203.13	30.5149384149047	114.933176845067	118.915081491646	-75.1309243514736
26609.38	35.2231322344944	131.802448241048	136.427835894083	-75.0378187097649
22703.13	40.8042413271336	150.896247651778	156.315909829005	-74.8683950897447
19359.37	48.6225694843325	171.782419519641	178.531100705958	-74.1959718213791
16500	58.0801954408736	199.726966697521	208.00040944345	-73.785676744286
14112.02	58.9092954989879	227.349561076476	234.857676088847	-75.4733812256233
12011.13	76.2490573060954	253.285764275074	264.513888339491	-73.2461223886113
10236.38	84.1090381684427	303.995216469478	315.416267712915	-74.5343606951834
8750.684	89.1114419831543	344.272123273383	355.617974736205	-75.4880489451787
7449.463	-290.939249883792	853.196903406854	901.438075025672	-108.829322480534
6363.206	27.1750149890588	1000.81088568533	1001.179759257	-88.4446300453695
5414.761	170.407246873544	523.24497016524	550.294401743507	-71.9609207583533
4620.567	254.874286784713	1074.47137145457	1104.28693288451	-76.6555650443167
3941.215	399.558506418341	1103.23454113891	1173.35989909884	-70.0911302897234
3361.769	465.063096730292	1162.29049539632	1251.87973848489	-68.1923481566598
2867.244	477.585135911815	223.401047623096	527.252871137753	-25.0688859709447
2442.658	757.725762023122	1087.40233260418	1325.36491706493	-55.1303714700546
2083.003	783.669004769374	1040.38008184129	1302.50828163521	-53.0110177745996
1777.843	998.706290978584	1014.40857643689	1423.53047582021	-45.4468977182179
1513.548	1068.43284008936	965.662438401868	1440.1571715343	-42.1076538515718
1292.065	1111.26339770433	1038.41212307619	1520.92277135592	-43.0590216224968
1101.762	1281.05729534025	945.272933802929	1592.05801192195	-36.4230588167593
939.101	1250.22820228893	1023.83514753527	1615.95450651532	-39.3146851355374
801.2801	1911.77614389417	927.054017068543	2124.69225416901	-25.8695658417502
684.3433	1483.98099947132	724.881786819946	1651.56084103953	-26.0341708867134
582.9476	1482.44549852104	895.954204736678	1732.16009452667	-31.1477504533206
497.0677	1810.28651383452	493.018383537732	1876.22077290422	-15.2346097274295
423.5089	1430.67626874285	577.651767189143	1542.89213818747	-21.9869517205139
361.5036	1910.60587085877	909.34896075604	2115.9703037113	-25.4520171189707
308.1262	1959.56756720156	689.983965916362	2077.49438594907	-19.3976924189603
262.7298	1830.70267512553	834.445052329663	2011.90726179643	-24.5037776976071
224.2111	1897.65844128639	808.089410785472	2062.55086133872	-23.0660031360838
191.2854	1830.61166825913	658.101637855729	1945.31150351682	-19.7734209522732
163.1722	2114.54675701245	801.049774792838	2261.19188245658	-20.7480966463041
139.1537	1997.28190783204	535.106736744338	2067.72199269204	-14.9983047439837
118.6706	2070.75838698027	667.406556045602	2175.65434026221	-17.8641594211367
101.1982	2129.77271834987	544.890727675023	2198.37161029104	-14.3509770270449
86.24196	2193.75960781886	529.905775069539	2256.85208805309	-13.579752916487
73.61024	2129.97167079266	503.7718512166	2188.73602713015	-13.3068244707764
62.69291	2177.08529603252	396.259901277956	2212.85388030069	-10.3157040308739
53.57697	2065.95062949546	477.66824750486	2120.45253617878	-13.0185865927799
45.65746	2164.24318447982	533.098800734297	2228.93312885598	-13.837687056699
38.96512	608.286121216155	-438.344847450042	749.772105742935	35.7773812182705
33.18414	1946.3867094699	1047.20398196469	2210.21659631896	-28.2813457366842
28.30617	2053.92166996986	405.041657650542	2093.47867694039	-11.1558148571404
24.17237	2137.97798052162	362.349083627216	2168.46644050601	-9.61920507595695
20.61345	2232.24367685369	233.336295652208	2244.40585895733	-5.9674528391127
17.55618	2036.70134602493	289.241191119568	2057.13704928477	-8.08278437084594
14.98558	2163.31312106892	231.443794942811	2175.65849572181	-6.10660709881612
12.76553	2284.32446905159	939.68596638059	2470.05020097172	-22.3604399888479
10.8809	2118.06048330069	254.602940781899	2133.30796379115	-6.85439150597521
9.278505	2119.01027001941	165.643351144588	2125.47459270304	-4.46973027644262
7.923394	2249.83010748508	190.058392196385	2257.84359621977	-4.82869807537459
6.75822	2052.24271462903	69.2573888728698	2053.41100261526	-1.93283702553274
5.761429	2216.91755304104	140.89742925942	2221.39044801975	-3.63657401189344
4.919708	2296.83056622057	184.881415018103	2304.25948789285	-4.6020525873969
4.191257	2163.10726536464	58.9175749750736	2163.90949952031	-1.56020647501807
3.564097	2179.90806375738	156.885366596403	2185.54619825034	-4.11641126841283
3.051758	2196.54763262394	23.1043157402363	2196.66914026479	-0.602641592580961
2.604164	2046.10799815138	171.414888815617	2053.2756766218	-4.78883281790498
2.214424	2127.24646306415	127.157610725945	2131.04354075286	-3.42082388934796
1.892567	2105.93563826415	89.9965622054416	2107.85774987779	-2.44702997736376
1.607507	2157.95078349567	-18.099297875424	2158.02668393446	0.48054342700189
1.376413	2067.87431251008	160.214772998258	2074.07158647572	-4.43031192605321
1.17375	1938.22688937735	232.263555751996	1952.09370523957	-6.8333410365821
1.001604	2022.59399752438	-131.765383068468	2026.88149505511	3.72736547706767
