EC-Lab ASCII FILE
freq/Hz	Re(Z)/Ohm	-Im(Z)/Ohm	|Z|/Ohm	Phase(Z)/deg
6999984	47.3674244926505	33.388071601503	57.9520166028244	-35.1790184745036
5969734	43.9849822041955	26.9360649378288	51.5774199998248	-31.4829823296736
5091109	41.8885417581851	22.2917564950707	47.4507359085478	-28.020495241295
4341796	40.8987902726961	18.6135042131734	44.9352154202448	-24.4708211652312
3702781	40.1952944790029	15.048768154699	42.9200084019988	-20.5254624358501
3157797	39.1844313502041	13.2483347358325	41.3634867184999	-18.6804982284832
2693047	38.9692389689084	11.9405685897235	40.757560820807	-17.0355936944421
2296687	39.0471062533507	10.6291921130218	40.467965500331	-15.2277743409336
1958656	38.9128779984427	9.59207633757479	40.0776746155207	-13.8474216096382
1670375	38.9518427869307	8.74642416489014	39.9217483606359	-12.6555433450512
1424531	39.0000236584815	8.11600048190646	39.8355533309684	-11.7556099953951
1214875	39.0597432110025	7.64418048270504	39.8007165131687	-11.0731083994132
1036062	39.1713728886826	7.409117713158	39.8659187686883	-10.7107469714607
883578.1	39.3276475939584	7.2646470454111	39.9929864097316	-10.4657674069966
753531.2	39.5299618510765	7.25801737991044	40.1907539147332	-10.4040827707728
642624.9	39.7619328888564	7.36781941744065	40.4387941218075	-10.4977441815428
548046.8	40.0601436443542	7.60627039922898	40.7758563146438	-10.7508482875419
467390.6	40.3781794190143	7.95102887021152	41.1535689009962	-11.1398178755003
398593.7	40.7537053574262	8.42292873134709	41.6150240751254	-11.6774069859377
339937.5	41.1967997267618	9.02606373518339	42.1739983198003	-12.3580178211957
289906.2	41.6924641509211	9.7254398098766	42.8117477624001	-13.13037065861
247234.4	42.2575276420506	10.5671448738971	43.5587326859334	-14.0397692710416
210843.7	42.9071830665728	11.5143629539629	44.4252958678272	-15.0216986107589
179812.5	43.6635362605159	12.6111855146932	45.4482826832807	-16.1101178862791
153343.8	44.4780169437178	13.8378469299915	46.5808973604366	-17.2817821998539
130781.2	45.4169733260213	15.2079223730049	47.8955360028456	-18.5131773635712
111531.3	46.4711163438226	16.7394829008425	49.3940780056546	-19.8096605328152
95109.37	47.6409280579428	18.412142775021	51.0750920487652	-21.1303912759492
81109.37	49.0276690283395	20.269378079014	53.0524270704217	-22.4615383917987
69171.88	50.4043466936034	22.2685429956583	55.1043208175044	-23.8357490155303
59000	51.9692764950824	24.4723137012222	57.4430138251237	-25.2157293242587
50312.5	53.6851969010765	26.8809736039068	60.0390465297484	-26.5978066585174
42906.25	55.551042544857	29.4907988776816	62.893763969605	-27.962827039215
36593.75	57.5447327205584	32.4031638885709	66.0406033730014	-29.3836535091584
31203.13	59.6469598384702	35.4782622108415	69.4007702224788	-30.7443595176587
26609.38	61.9031062191605	39.1881821746597	73.2646448277407	-32.3361336753573
22703.13	64.2873439554943	43.167356746838	77.4356718919699	-33.8803809839498
19359.37	66.7892039354916	47.672814013456	82.0578756628409	-35.5184959681186
16500	69.5089090712051	52.7644084222966	87.2672403392246	-37.2022355815136
14112.02	72.2794643073384	58.4509618767849	92.9560966525443	-38.9617775112045
12011.13	75.3943913042286	65.1289641166931	99.6297957794185	-40.8218849930967
10236.38	78.674588437625	72.6931540056179	107.116691066865	-42.7370823669907
8750.684	82.2461797832344	81.1591484644797	115.547572317274	-44.6188533831169
7449.463	86.220724785121	91.1290025217873	125.453212326698	-46.5852961022074
6363.206	90.6682829634641	102.252510777758	136.66130943284	-48.4362878255791
5414.761	95.6184360579244	115.280395840969	149.774680702093	-50.3262521381756
4620.567	101.148137081168	129.589579713121	164.39101193561	-52.027008598086
3941.215	107.605899714563	146.554445770935	181.816487779867	-53.7124556257105
3361.769	114.897935577893	165.474125275061	201.452777929738	-55.2255913260274
2867.244	123.078812980868	186.680363475938	223.602218934177	-56.6030391613015
2442.658	133.049685207956	211.506125566197	249.874088064289	-57.8277135300818
2083.003	143.873169763249	238.887332331044	278.866718211347	-58.940970526021
1777.843	156.713237022559	269.645393354719	311.877663219907	-59.8355868273382
1513.548	171.837053740411	304.620002365203	349.744648106531	-60.5725251434355
1292.065	188.942409980839	343.460793019887	392.000702335107	-61.1842148855172
1101.762	208.675701543701	387.375428151244	440.005989448002	-61.6890479988069
939.101	231.610842168155	436.91737719402	494.510239230639	-62.0718411017338
801.2801	257.978506305881	491.160473659104	554.789618324684	-62.2896223596631
684.3433	288.173446387785	551.189449069053	621.975677955384	-62.3984843407379
582.9476	323.629248509204	620.003560297772	699.385662758785	-62.4363568509961
497.0677	363.141026586408	694.287404121824	783.521795939623	-62.3885721708822
423.5089	408.837327202789	777.729660176537	878.641783910048	-62.2699699072901
361.5036	461.541445906653	869.334867211294	984.257901994636	-62.0355728733021
308.1262	519.874858664644	969.959633418679	1100.49605139377	-61.809770206241
262.7298	585.840160034169	1081.32235688394	1229.82386243148	-61.5519964942116
224.2111	661.113042139539	1202.24829760977	1372.03185953993	-61.1937259849163
191.2854	744.925694966085	1336.00676094348	1529.64974955294	-60.856998688718
163.1722	839.604178471039	1483.06715243618	1704.23688351743	-60.4846334176624
139.1537	943.750256966957	1641.71869779184	1893.64854981185	-60.1073407095688
118.6706	1059.89589798153	1819.80700958362	2105.96221872278	-59.7825309355091
101.1982	1191.23627258545	2015.55110325397	2341.25823158224	-59.4159525381844
86.24196	1335.24154476825	2228.78687499833	2598.14566894159	-59.074641579625
73.61024	1492.70630931448	2461.07494272076	2878.37836282085	-58.7620931023811
62.69291	1666.41650127347	2720.10399297492	3189.97017044276	-58.5071268835479
53.57697	1854.77411014112	2998.41195048979	3525.71428571429	-58.2596664118309
45.65746	2066.21580318282	3311.53498771422	3903.26936300556	-58.0381036324538
38.96512	2292.77302523229	3654.14394022678	4313.88178803372	-57.8940047469784
33.18414	2547.55163972254	4034.13213695312	4771.18868369832	-57.7276178032724
28.30617	2819.84838065099	4458.90058400252	5275.7311633439	-57.6903755465889
24.17237	3123.87751885171	4915.63184236248	5824.26365838936	-57.5640956485421
20.61345	3454.11719793886	5429.1556372061	6434.80042814878	-57.5348175052109
17.55618	3826.340512177	6007.51266786898	7122.57609083492	-57.5058831365568
14.98558	4224.09206843348	6636.31884129029	7866.61817847206	-57.5227853915132
12.76553	4666.73763662137	7346.1035788367	8703.08439348118	-57.5735494521617
10.8809	5154.42525695703	8127.54112972326	9624.18955262727	-57.6174380192688
9.278505	5679.51528982567	8988.84105982895	10632.7869124811	-57.7136376330712
7.923394	6293.4848189117	9942.60283901525	11767.0430601858	-57.6669415727681
6.75822	6928.36729720465	11017.5867088834	13014.9717745656	-57.8364224885678
5.761429	7666.4274151837	12206.6132203091	14414.4204053616	-57.8689091955517
4.919708	8463.27172151634	13531.4474932348	15960.1704093154	-57.9759950074616
4.191257	9333.45091107264	14961.7026157509	17634.2238579295	-58.043145661051
3.564097	10305.4362951308	16661.7655846075	19591.2339996593	-58.2628749754836
3.051758	11346.389569362	18400.6636238981	21617.7005729003	-58.3407972356214
2.604164	12501.9468243814	20439.9523248186	23960.1820827914	-58.5482652532383
2.214424	13794.2702960422	22662.3988956807	26530.4771292795	-58.671737658089
1.892567	15190.6932727186	25157.3824717987	29387.9406379246	-58.875309562699
1.607507	16737.4566572584	28020.6828550126	32638.9510097184	-59.1490687972125
1.376413	18402.8913239198	31004.930267017	36055.1259870575	-59.3088667262745
1.17375	20282.0615459277	34532.7218381374	40048.3569962985	-59.5730575656093
1.001604	22273.0272379758	38416.2392031079	44406.026357399	-59.895632804268
