EC-Lab ASCII FILE
freq/Hz	Re(Z)/Ohm	-Im(Z)/Ohm	|Z|/Ohm	Phase(Z)/deg
6999984	16.6501590316044	94.0140509090188	95.4770630261599	-79.956890564081
5969734	15.302219304987	92.3802515343092	93.6390345379541	-80.5947071816207
5091109	12.2604329461805	97.9582386876038	98.7225138598351	-82.8659691772988
4341796	12.4068113571472	107.939238326771	108.649933909853	-83.4430522685545
3702781	15.1682162549961	118.19703972307	119.166333264288	-82.6872063452179
3157797	14.9636165134313	131.712292927488	132.559563696391	-83.5185108101733
2693047	15.0118833799879	149.641714477923	150.392816831478	-84.2713200571956
2296687	16.4599393306752	172.327932588483	173.112235133714	-84.5439333761189
1958656	18.7139664936905	197.976156360794	198.858670993549	-84.6000832400417
1670375	21.1092214372523	228.173471099788	229.147839054643	-84.7143883201703
1424531	24.5870781348015	264.420020894436	265.560674537893	-84.6876311911377
1214875	28.5935511072641	306.033360819816	307.366245868988	-84.6621918650339
1036062	33.2099091996522	354.870818731852	356.421374297985	-84.6536547938864
883578.1	39.3130932748233	411.95980675858	413.831368660474	-84.5488035173775
753531.2	46.4716545943972	478.736279521072	480.986527888691	-84.4555832841097
642624.9	109.675807558854	634.667390646979	644.074125791692	-80.195642077312
548046.8	133.349486987096	725.681017909183	737.831298762413	-79.5876192651192
467390.6	163.486768841415	828.75434948173	844.725810764115	-78.8406541876072
398593.7	195.129654704598	947.844067037455	967.721012256755	-78.3672191614906
339937.5	231.334879605543	1084.37831482053	1108.77957961676	-77.9573824506335
289906.2	273.412035377247	1240.70048807041	1270.46914255612	-77.5724121080851
247234.4	322.882452474203	1422.33646832648	1458.52463374713	-77.2101308942239
210843.7	379.151805044975	1632.42667800929	1675.87975414267	-76.9241676586741
179812.5	451.773806787743	1879.35662707756	1932.89443691057	-76.4832766353209
153343.8	544.159904263951	2156.02326496723	2223.63358503341	-75.8349175943509
130781.2	659.928092120861	2477.52712584898	2563.91219547156	-75.0846866574066
111531.3	809.531295306214	2840.92229680717	2954.01090292102	-74.0949020663181
95109.37	992.687022654748	3247.7767810402	3396.09798804613	-73.0041623117275
81109.37	1261.46355093361	3725.11914587445	3932.91278078912	-71.2919925325381
69171.88	1791.07981476304	4360.6820755423	4714.18233279192	-67.6703836052957
59000	1280.61688940166	5397.24374711975	5547.09110104062	-76.6521272975459
50312.5	3420.11838861419	6150.49172639241	7037.45396209157	-60.922774243599
42906.25	3889.76543153032	6054.70479001566	7196.50784801676	-57.281816531615
36593.75	4493.38053647107	6481.82062318747	7886.98086955429	-55.2692106029708
31203.13	5230.25252978712	6943.32024518206	8692.82678721367	-53.0100781238156
26609.38	6063.0099016181	7378.84722629143	9550.26049152942	-50.5909299916363
22703.13	6967.40052800505	7759.40980405753	10428.4759492914	-48.0784069275845
19359.37	8301.53653627697	8954.96821559619	12210.9362706338	-47.168515571449
16500	7780.03321326636	6627.1916571549	10220.009102745	-40.4250372354552
14112.02	7421.74554270528	7754.30351331158	10733.6633950027	-46.2553411671475
12011.13	8153.02335785057	12386.6082601067	14829.0206710693	-56.6465782241534
10236.38	6390.58392891106	9076.59410542867	11100.6361757855	-54.8516618801912
8750.684	14693.8525592959	23999.5365492696	28140.4878709317	-58.5227113355755
7449.463	17621.4804088251	-309.259298791054	17624.1939705762	1.00544524650281
6363.206	10931.3663961549	4679.89849273179	11891.0143044763	-23.1765668018102
5414.761	28362.0365890588	8736.9515964512	29677.2546351215	-17.1214972566661
4620.567	15805.1413128545	8951.28608539796	18163.9206808976	-29.5251683549778
3941.215	13495.6490576539	7933.72469740686	15654.9203467024	-30.4501113123913
3361.769	11726.2963239909	4257.61646556522	12475.3085511299	-19.9550886803753
2867.244	17865.189604649	9802.81822027755	20377.9352405946	-28.7540416472451
2442.658	18549.0030814067	10271.6406107594	21203.1157179939	-28.9757992322725
2083.003	19238.4587779747	10818.531892018	22071.6770647462	-29.3507370838281
1777.843	19935.3547461639	11506.3421545906	23017.6949027027	-29.9927993186297
1513.548	20634.1779197218	12273.597377167	24008.5503727222	-30.7449783120774
1292.065	21432.457809005	13196.957247678	25169.6231265353	-31.6225319302557
1101.762	22259.6298742882	14304.8210237475	26459.7624075076	-32.7262262605942
939.101	23064.0727253911	15592.8207315266	27840.3934786787	-34.0612637598726
801.2801	24131.1412130704	17002.5223971003	29519.4468801338	-35.1680807101945
684.3433	25622.4791897545	18130.795239001	31388.4879506481	-35.2837150524078
582.9476	26720.153423643	20073.4053702558	33420.1765725681	-36.9155561487199
497.0677	27952.7728940486	22253.7475494924	35729.3547725507	-38.523980459945
423.5089	29299.8213373907	24821.0082837999	38400.0258154533	-40.2692213630694
361.5036	30764.3094246719	27379.469714404	41183.4687249498	-41.6682868959537
308.1262	32504.1641574984	30514.5653818153	44583.173821731	-43.1916842703814
262.7298	34417.4805036363	33975.106744357	48361.8738523295	-44.6294072657032
224.2111	36536.1611877981	37826.2657764858	52590.0889610781	-45.9939177139631
191.2854	38878.5543447022	42057.4127098004	57274.4965213702	-47.2492052177373
163.1722	41485.5701671006	46776.0483307195	62522.4058200518	-48.4302545799964
139.1537	44545.7208191178	52163.7546718874	68595.7618571558	-49.5040233246951
118.6706	48063.2593226957	58138.068050471	75432.8300765781	-50.419157244656
101.1982	51736.4002092966	64710.3691921643	82849.785682298	-51.3574157412284
86.24196	56203.5503311097	72209.995229148	91504.7675305236	-52.10513712303
73.61024	60913.7539691557	80085.8081142334	100619.193417184	-52.7431600053759
62.69291	66965.5735128493	88689.7072665651	111131.688599309	-52.9452021126729
53.57697	72804.9527189341	98829.5891818992	122751.166341788	-53.6219798602814
45.65746	79785.7113095481	109680.23183151	135630.059292858	-53.9663847909346
38.96512	87433.5335065592	121485.216765844	149677.255032576	-54.2572410860548
33.18414	87377.6167111775	139019.744598948	164199.078226652	-57.8495432220763
28.30617	95430.8126135947	153249.633508643	180533.90309475	-58.0888676931024
24.17237	105727.186724922	169114.950317509	199444.489604652	-57.9872249802462
20.61345	118603.060729645	185842.359746319	220463.304634854	-57.454316934995
17.55618	133381.216961744	205795.676540051	245239.494210808	-57.0517395994023
14.98558	148109.781732931	227204.990101834	271216.914981627	-56.9005818738908
12.76553	166985.264933701	248985.983557927	299796.762346238	-56.1517718722785
10.8809	187347.861059481	270669.34791068	329182.497927753	-55.3103718909729
9.278505	208629.842794614	300022.803351705	365431.380474531	-55.1860228606957
7.923394	234823.043424375	327934.780509999	403339.908750953	-54.3948254413995
6.75822	261202.554490212	356738.279994736	442141.351703067	-53.788538691326
5.761429	290878.895448855	390941.203839324	487283.856368017	-53.3489941187914
4.919708	326239.316297963	429160.445810263	539083.277190664	-52.7586184066886
4.191257	358289.876951528	460883.900911564	583768.452423905	-52.1386035878436
3.564097	405697.586120452	502778.353430559	646046.905466086	-51.0995446263739
3.051758	447166.469373977	555423.03703872	713058.624101625	-51.1627476007548
2.604164	488460.545532754	598773.447878832	772737.566335984	-50.7935164088386
2.214424	549629.063520784	651905.797420391	852685.91883357	-49.8653878060841
1.892567	600019.760506949	708848.573011903	928703.403923894	-49.7530537007708
1.607507	664699.395832242	766423.747410001	1014510.05288944	-49.0657507184657
1.376413	735054.872558417	829237.021296881	1108124.40779959	-48.445478068613
1.17375	805705.30396435	885467.544971498	1197169.08163974	-47.7002891602658
1.001604	881153.647480038	966189.061651275	1307651.732428	-47.6355334702602
