EC-Lab ASCII FILE
freq/Hz	Re(Z)/Ohm	-Im(Z)/Ohm	|Z|/Ohm	Phase(Z)/deg
6999984	14.4978482306604	-6.10231171467418	15.7297746831387	22.8267875270387
5969734	6.6554135860384	4.63946900364442	8.11290346528306	-34.8802381730767
5091109	11.4907320431786	-0.215607977779067	11.492754660577	1.07495132958792
4341796	2.52452567898031	-1.45705671513233	2.91483175757078	29.9918482086898
3702781	6.47638371633813	1.09819968437377	6.56883464459324	-9.62409240594942
3157797	5.32971517521921	-0.585095313378942	5.36173482883105	6.26483512351945
2693047	-4.71608105924768	-17.5455995142348	18.1683648926179	105.044936243695
2296687	12.2976620127293	-23.5083429943931	26.5306366550325	62.3850771283319
1958656	10.7149064948079	-20.9181726668454	23.502748114049	62.8771332827902
1670375	-8.75713462147239	-13.7428038151538	16.2957682691059	122.505939641866
1424531	11.570783166566	-24.8478033603827	27.4097857511498	65.0301940853328
1214875	23.2223685628801	7.9907636210022	24.5587195292624	-18.9882224010921
1036062	-16.113602121377	-16.153112416615	22.8160297613289	134.929841879923
883578.1	9.76500132613262	-14.2102918666337	17.2420313720364	55.5040029778374
753531.2	12.5756266299571	-14.7523743701723	19.3850183052223	49.5541456726132
642624.9	-0.102778422297539	-0.377229233710856	0.390979921295264	105.240658626512
548046.8	-0.0712457055321083	-0.186344852323133	0.199500262015111	110.923483221737
467390.6	-0.0610001333735986	-0.130473942090836	0.144029392265328	115.057373713606
398593.7	-0.053254145453359	-0.0960668612778014	0.10984009215098	119.001557879507
339937.5	-0.043604684350214	-0.0742346669934074	0.086093869008797	120.429540592312
289906.2	-0.0361926147845907	-0.0539909271610339	0.0649994275409702	123.835774684364
247234.4	-0.0264167556266901	-0.0424441108413742	0.0499934748037693	121.897687646555
210843.7	-0.0222507017940476	-0.0327519682436769	0.0395952668151442	124.191008517345
179812.5	-0.0156217175295225	-0.0239188500881635	0.0285683294595997	123.1490847669
153343.8	-0.0115192059916052	-0.0213178179740262	0.024231002246105	118.384826108828
130781.2	-0.00740753492208164	-0.0173663079628355	0.0188801542864962	113.100493660116
111531.3	-0.00551877764980043	-0.0145871728718456	0.0155962341333107	110.723177176559
95109.37	-0.00545787192444387	-0.0127609350186467	0.0138791148310602	113.1564716367
81109.37	-0.00338795653479569	-0.0105422128682398	0.0110732335675242	107.815874732507
69171.88	-0.00317308089633553	-0.00823855379218125	0.00882848860005797	111.064201656221
59000	-0.000511986521158117	-0.00670670944627241	0.00672622344221236	94.3654613086924
50312.5	-0.000770171948543731	-0.00634674566851075	0.00639330473316294	96.918962314252
42906.25	-0.000536929675035888	-0.00587840026108076	0.00590287075120306	95.2188819445398
36593.75	-0.000448291156272647	-0.0051677828475805	0.00518719042647747	94.9578423730782
31203.13	-0.00055965241174429	-0.00430850100463973	0.00434469696629728	97.4009917072955
26609.38	-0.000264090060646713	-0.00360882880054279	0.0036184788063162	94.1853806736828
22703.13	-0.00013446357399903	-0.0030686354655835	0.00307158006136409	92.5090207566891
19359.37	4.23393777236527E-05	-0.00255845030475675	0.00255880061450984	89.0519080124287
16500	0.000328558350267488	-0.00207667095650976	0.00210250156983096	81.0095286252954
14112.02	0.000230280111688566	-0.00185886228024969	0.00187307178366831	82.9380472679262
12011.13	0.000242188606382413	-0.00159919087743773	0.00161742597467133	81.3883110236564
10236.38	0.00026677843949707	-0.00131648986849117	0.00134324841694319	78.544492303304
8750.684	0.00028942180924585	-0.00107924349711118	0.00111737706694021	74.988143268927
7449.463	0.000312976031578446	-0.000891053899376339	0.000944421012015495	70.6465555763232
6363.206	0.000339528074860903	-0.000764277934489014	0.000836301425782322	66.046964988572
5414.761	0.00036878427164202	-0.000652871331448818	0.000749828523356032	60.5394081828769
4620.567	0.000502510069146018	-0.000608790421978786	0.000789393531444389	50.4629254906261
3941.215	0.000345520097534729	-0.000489788981005812	0.000599397517274738	54.7990643545982
3361.769	0.00035541363123754	-0.00040515132565563	0.000538949390898596	48.7415711979807
2867.244	0.000411940840047055	-0.000353811381690693	0.000543026472202369	40.6589128778497
2442.658	0.000349383792863029	-0.000312278474727952	0.00046860098217329	41.790275340115
2083.003	0.000354562962042499	-0.000259989429728664	0.000439669646010487	36.2513777430263
1777.843	0.000360550696847158	-0.00021985444747475	0.000422294663796973	31.3737536556099
1513.548	0.000365644201112575	-0.000205022446922234	0.000419201485623839	29.280034091909
1292.065	0.000365800851233344	-0.000189894097991149	0.000412152922123465	27.4346745436634
1101.762	0.00033656670892306	-0.000238972087259337	0.00041277694708448	35.3758523954428
939.101	0.000386740432514179	-0.0001289179661172	0.00040766162945395	18.4355473119089
801.2801	0.000346924570197946	-0.000151699675355989	0.000378641583704355	23.6183115322781
684.3433	0.000352345991149739	-0.000145313045246017	0.000381134593809015	22.4120233791435
582.9476	0.000337934572933006	-0.00013923702497727	0.000365495177407218	22.3928178338507
497.0677	0.000302929863584825	-3.0291816832736E-05	0.000304440628725124	5.71037412488883
423.5089	0.00030110791425735	-4.36660210841737E-05	0.000304257616873818	8.25138866121909
361.5036	0.00028803017062983	-5.38533584581806E-05	0.000293021438482365	10.5903857274375
308.1262	0.000275331020511741	-6.03226339400175E-05	0.000281861652271993	12.3577485310319
262.7298	0.000304379315179719	-9.29457193877204E-05	0.000318254103291341	16.980652771467
224.2111	0.000270537760962237	-7.38522803064009E-05	0.000280436872420365	15.2687694711752
191.2854	0.000313839946288966	-3.48740849354969E-05	0.000315771616341224	6.34072911306248
163.1722	0.000271758565455537	-1.49571167730809E-05	0.000272169861007083	3.15028123989631
139.1537	0.000331448959151595	-3.9602706262368E-05	0.000333806511119809	6.81360264053985
118.6706	0.000292999310112211	-3.56071855269936E-05	0.000295154988755713	6.92897915174534
101.1982	0.000271241836863306	-5.78891760556831E-05	0.000277350483629263	12.0474746962347
86.24196	0.000283393651299478	-4.06973880550521E-05	0.000286300958767786	8.17221735308791
73.61024	0.000278843028259746	-2.62910289981567E-05	0.000280079725461961	5.38627367257954
62.69291	0.000322478677198048	-4.68187021030872E-05	0.000325859614119364	8.26070495496792
53.57697	0.000291442189559086	-6.22501832012139E-05	0.000298016165943358	12.0568368266072
45.65746	0.000279159258794627	-3.65710103738741E-05	0.000281544544558284	7.46348001966698
38.96512	0.000289425583886258	-3.3406197439933E-05	0.000291347117087671	6.58408147738839
33.18414	0.000267714705489331	-5.5907658597069E-05	0.000273490090908328	11.7957227706322
28.30617	0.000420495774218545	-4.36307171010853E-05	0.000422753279834005	5.92382210301348
24.17237	0.000315809831985208	-3.54046344187795E-05	0.000317788196943896	6.39657530935388
20.61345	0.000266655522701383	-2.89165519751822E-05	0.000268218818812703	6.1890614551134
17.55618	0.000266338489619084	-8.62318426763261E-06	0.000266478048550887	1.85440540591508
14.98558	0.000282154063274207	-4.61743924621046E-05	0.000285907310052383	9.29404579764226
12.76553	0.000239543461156218	-3.8110921574905E-05	0.000242556204055862	9.03988744930017
10.8809	0.000272678150576813	-2.42793157432742E-05	0.000273756934113006	5.08820899543879
9.278505	0.000227123422568845	-4.19150704247178E-06	0.00022716209589338	1.05725953878987
7.923394	0.000249282581021232	-5.95052222320287E-05	0.000256286317764898	13.425604351285
6.75822	0.000198496442591849	2.5712558646924E-05	0.000200154873519959	-7.38080220982961
5.761429	0.000181225941631213	-6.77880729939032E-05	0.000193489185125026	20.5084513189127
4.919708	0.00029207978119183	-1.13558551653805E-05	0.000292300451637702	2.22649794906012
4.191257	0.000200603717334508	4.57150583163694E-05	0.000205746732575009	-12.8377496534807
3.564097	0.000133105984790227	-3.26265757185053E-05	0.000137046330232121	13.7726391582178
3.051758	0.00024828604937303	-0.000103903559050707	0.000269150351841996	22.708494660656
2.604164	0.000286837294690933	2.63731367756875E-05	0.00028804717663779	-5.25326667706008
2.214424	0.000352947356555818	4.55641546532149E-05	0.000355876282841385	-7.35598167814454
1.892567	8.02020283847637E-05	4.71530139999704E-05	9.30364019419917E-05	-30.4524604393513
1.607507	0.000107219821166021	-0.000104820217804033	0.000149944550122231	44.3516258674678
1.376413	0.000177482438768564	-0.000174073343519014	0.00024859916531462	44.4444106528113
1.17375	0.00035427383560903	-9.64861512118307E-05	0.000367177787962189	15.2349477725286
1.001604	0.000357549357382387	8.35664721284757E-05	0.000367185100771474	-13.1550364916903
