EC-Lab ASCII FILE
freq/Hz	Re(Z)/Ohm	-Im(Z)/Ohm	|Z|/Ohm	Phase(Z)/deg
6999984	153.03221343005	101.039248590051	183.378810397883	-33.4347172221632
5969734	328.860717070578	-407.498056402328	523.644953383348	51.0956370542111
5091109	241.269958784538	131.167006238361	274.619694372831	-28.53082301984
4341796	920.699245035931	75.0515506382608	923.753124521341	-4.66020837656047
3702781	-55.4867997469166	-782.28360902558	784.248959129842	94.0571527191325
3157797	90.2999872163624	-146.097024839333	171.751065086013	58.2805220755737
2693047	494.473567672365	-751.528117017277	899.610259942699	56.6567826024847
2296687	265.279890206002	-1422.24191395847	1446.77070815246	79.4344676464807
1958656	237.815483903244	-71.8086646451023	248.420387050352	16.8017524295154
1670375	248.354741217605	-791.518811031527	829.567420829691	72.5797151770946
1424531	994.401891054471	607.371999073822	1165.21923524787	-31.416221287385
1214875	-129.440368258094	-4876.27913786474	4877.99682649647	91.5205539685294
1036062	166.861597569455	-677.157935328175	697.413551719026	76.1572636498914
883578.1	323.735094173186	-220.339870904508	391.604481472744	34.2399005412385
753531.2	281.242159148054	-638.932870592045	698.091946096824	66.2421144135935
642624.9	4317.75497272466	2410.61318890485	4945.10504954248	-29.1747301787419
548046.8	75.6975295185647	161.787381149802	178.620471039926	-64.925915766619
467390.6	249.436285993953	-140.809464265008	286.436321015781	29.4451949059334
398593.7	-34.7143551895763	-225.506245392524	228.162558644623	98.7513959346394
339937.5	86.9031600689218	-105.0017644989	136.299412243219	50.3876445659238
289906.2	232.601713179448	-60.9809230092662	240.462533349951	14.690551923485
247234.4	250.671458611694	-276.176207045591	372.973829511674	47.7715307325124
210843.7	165.796850173895	-139.453511391293	216.646895585759	40.0675516783393
179812.5	204.847847975026	-37.9384272284811	208.331382850905	10.4924615106717
153343.8	81.5251331128418	-79.6168388087564	113.952570620263	44.3215169353337
130781.2	795.171135988414	496.860425618426	937.639279283258	-31.9990855227936
111531.3	90.8046512507042	-103.13899643643	137.415928023923	48.6389716456066
95109.37	-7.17348558411883	-206.100778804406	206.22558017668	91.9934160368508
81109.37	-61.0889465130591	-189.505087365276	199.108105117287	107.86726904673
69171.88	136.999011949103	-370.771750099589	395.27258942019	69.7208849625098
59000	-142.312415511034	-416.303751669476	439.956403820499	108.872867272964
50312.5	144.111644245106	-295.518617749588	328.784761574582	64.0035110122379
42906.25	-205.195959999135	-242.038255241259	317.313565736165	130.290717204308
36593.75	-158.208010692975	-304.37526780335	343.036555337459	117.46448400251
31203.13	-322.273436421426	-369.656250171364	490.414020103044	131.082544877179
26609.38	-262.263105731254	-439.514383198189	511.815230005798	120.824996062511
22703.13	-251.054341519992	-453.418406255457	518.28229135026	118.97296728553
19359.37	-301.25959366191	-580.240443698706	653.786138792351	117.438242535493
16500	-426.991677737238	-600.268352664091	736.64373211677	125.425560678514
14112.02	-370.702818087316	-670.744396023098	766.367160135577	118.92827657751
12011.13	-562.948702149914	-698.25473103076	896.92302382039	128.876542774366
10236.38	-738.889483869101	-725.624273394669	1035.61008855258	135.518957084877
8750.684	-869.55537329912	-703.514822353828	1118.50777936718	141.025367974982
7449.463	-1020.75621280339	-864.978224390933	1337.95761317286	139.722404653075
6363.206	-1253.88303701693	-483.621704906639	1343.91689623116	158.908412085046
5414.761	-1504.74632984243	-787.018360386296	1698.13409857979	152.389355587827
4620.567	-1585.98148389034	-601.307829218612	1696.14515084135	159.236315831199
3941.215	-1698.96828943325	-430.62444496429	1752.69240344692	165.777202020413
3361.769	-2219.60544387387	-546.378925297841	2285.864881502	166.170995913006
2867.244	-2129.06663195345	-346.235018868706	2157.03579283901	170.76325264098
2442.658	-424.168896766406	2217.95404365616	2258.14955057338	-100.826706364383
2083.003	-567.303880257196	2777.05942696009	2834.41224126322	-101.545653805713
1777.843	-3402.28631357997	509.409633209623	3440.21079789893	-171.484606505049
1513.548	-3346.12465140975	1551.98178199346	3688.52241885712	-155.117436833563
1292.065	-4311.96038731056	1706.78963948153	4637.47056650249	-158.405011366244
1101.762	-3766.64884190848	3494.90715650063	5138.28955303317	-137.143120546734
939.101	-4831.90441367531	3381.90609697083	5897.84614173881	-145.011378059927
801.2801	-5816.53019217715	4061.03878111382	7093.94526749529	-145.077669276824
684.3433	-5999.49490446381	6121.27014872688	8571.10770801429	-134.424378513059
582.9476	1731.13940064154	7888.20934347795	8075.93278024195	-77.6221448447024
497.0677	-13032.453659715	9547.57282727762	16155.525224665	-143.773502743547
423.5089	32695.5474563367	18621.683476799	37626.6649994343	-29.6635892287034
361.5036	5305.89914616925	32394.5513279289	32826.2017523676	-80.6981260636418
308.1262	36297.7273830283	-22995.9257886474	42969.030894932	32.3557402911067
262.7298	-49552.7101910724	57792.6149399005	76127.901776366	-130.61054224555
224.2111	-55780.914110408	44059.3205338363	71082.586509609	-141.696072369962
191.2854	78510.694744798	-60328.6937519368	99012.5268798137	37.5391691425183
163.1722	184037.71799747	-35425.7852623149	187416.295735371	10.8957092068848
139.1537	-76151.622344864	-623542.081759083	628174.973482871	96.9629081771385
118.6706	134515.241820945	355011.007191096	379640.837514859	-69.2480801899679
101.1982	228317.315519608	-1724359.09388919	1739408.83096655	82.45750756515
86.24196	-2071779.26654482	-2367906.96543442	3146307.79267348	131.184015702697
73.61024	-1728424.30497343	-2940153.62762383	3410565.04586153	120.449937889818
62.69291	-2131767.43661084	-2867286.18005864	3572920.71590591	126.630032555438
53.57697	-2400533.25614571	-3310248.0022421	4089046.55759865	125.948957624366
45.65746	-1795636.14617564	-3238197.54432327	3702733.11291994	119.009120922403
38.96512	-1733482.5326343	-3327152.3310801	3751653.54545965	117.520003612858
33.18414	-2231860.00023859	-3139440.81009013	3851919.99666717	125.409403268691
28.30617	-3014647.18356907	-3174864.35674702	4378111.61634141	133.517214436028
24.17237	-2718971.48733916	-3317022.74198574	4288991.23568864	129.341555320895
20.61345	-1375842.08434778	-3829374.66812911	4069035.73220627	109.762670728802
17.55618	-1456246.74053602	-2464865.05541565	2862903.12632666	120.574670801818
14.98558	2637684.44739299	-1284348.6159456	2933757.08116746	25.9625053256984
12.76553	2371940.25616554	-2407677.34190929	3379794.48510734	45.4283911814351
10.8809	5639162.12640839	-4690405.32569745	7334851.8463054	39.7521842487433
9.278505	3305843.41071088	4861198.11453748	5878762.43480916	-55.782454736693
7.923394	4152302.40555164	2555862.54108116	4875863.88202663	-31.6135021154044
6.75822	8622214.23297839	-5578563.24368386	10269515.3801509	32.9028233122094
5.761429	-72183.8160527584	-4757750.51683169	4758298.06587525	90.8692155470246
4.919708	5876325.24015665	-2491490.95497091	6382689.51985008	22.9763581594576
4.191257	2110040.15776893	-3814725.38987	4359403.54492634	61.0516897475034
3.564097	8734121.90329747	-662385.205768215	8759203.13627223	4.33694043192751
3.051758	5595764.64132301	3728952.38226315	6724408.35986832	-33.679026426007
2.604164	11900043.8472369	1984957.83848866	12064456.1082023	-9.46989800412381
2.214424	11739598.8916934	-215314.529131036	11741573.2542238	1.0507369872501
1.892567	8311863.8374054	1748096.88114694	8493699.02677527	-11.8769796451377
1.607507	4863000.3009948	156972.513410078	4865533.09488712	-1.84880531642547
1.376413	8652205.87887134	2444496.26401255	8990896.98279027	-15.7765074804862
1.17375	3295364.99864735	2764682.47246308	4301499.69753045	-39.995336077841
1.001604	7818550.21926448	-93648.8178069392	7819111.05127925	0.68624301038409
