EC-Lab ASCII FILE
freq/Hz	Re(Z)/Ohm	-Im(Z)/Ohm	|Z|/Ohm	Phase(Z)/deg
6999984	18.2341799374057	4.22492720787796	18.7172468034579	-13.0454411246377
5969734	12.6097229331857	-6.37936555419784	14.1315751891216	26.8352346392417
5091109	9.06739269376918	-5.20363072405121	10.4544432168963	29.8508203769963
4341796	10.0855892176566	-6.39073965164804	11.93987701622	32.3604156267149
3702781	5.79522626952733	-6.59481250029261	8.77930517917194	48.6924400670482
3157797	4.04951993927297	-5.14429466501344	6.5469366377761	51.7906520484386
2693047	3.57592128606566	-4.52803739502321	5.76977778557078	51.7008351844739
2296687	1.81855305456278	-4.57729660282343	4.92532023349534	68.3321498586718
1958656	1.75901257165016	-3.32436305555426	3.76105237298783	62.1154431899433
1670375	1.21551637104345	-2.77936843616116	3.03354066269163	66.3785356646142
1424531	1.0417534516544	-2.504636032531	2.71264666137823	67.4161049358166
1214875	0.556202346559442	-0.63412947189802	0.843493472083745	48.7456220095923
1036062	9.2252011074654	-5.82320722505473	10.9093573531675	32.2612767394235
883578.1	14.1440006598307	21.3891048118445	25.6426706744317	-56.5244809180111
753531.2	16.4817695544647	-0.481312123709988	16.4887958628551	1.67271590541673
642624.9	33.7968022090666	-10.2078164287219	35.3047214378085	16.806152745382
548046.8	12.5494196953633	-14.9807028937537	19.5425022420695	50.0469008355816
467390.6	9.31954047746089	1.65091800410694	9.46463760359141	-10.0454971346902
398593.7	8.4156461985448	-12.1921502957511	14.8145749103126	55.3845756550203
339937.5	6.54518189480369	6.21104836852448	9.02311076470951	-43.499551682439
289906.2	-1.30634972608028	-16.6072703362897	16.6585706958742	94.4976999678086
247234.4	2.4913175910706	-4.50392759285884	5.14704061585811	61.0511167897083
210843.7	-2.14556658588109	-11.0522353825657	11.2585684225876	100.986160518768
179812.5	1.88813633686254	-3.78954841503605	4.23387954676121	63.5152936750069
153343.8	2.89902602999067	-1.45198452022039	3.24231568011555	26.6041149238418
130781.2	4.52172591241725	-1.01030729775865	4.63321983753523	12.5949530582161
111531.3	2.41474637727507	-1.55354914412552	2.87132635027372	32.7555731588608
95109.37	2.47028044758816	0.676543524978173	2.56124903727191	-15.316210376612
81109.37	1.75340847480916	-1.75138738709604	2.47826533268972	44.9669596211265
69171.88	0.562374339109002	0.283384703308551	0.629739459901921	-26.743882248386
59000	0.444970888647851	-0.198043844120357	0.487052826640013	23.9924816203883
50312.5	0.354446437329124	-0.099479963390009	0.368142010712424	15.677460266442
42906.25	0.381925874886304	-0.132439185943471	0.404236950167891	19.124844187341
36593.75	0.3717613798452	-0.0995423248613756	0.384857373559628	14.9898135094598
31203.13	0.362751351825429	-0.0886251892949028	0.37342063069511	13.7292089573468
26609.38	0.355264469647963	-0.0766262199866309	0.363434204476805	12.1715429771924
22703.13	0.355685502996498	-0.0707958226925414	0.362662688393203	11.2570622291179
19359.37	0.351129096050595	-0.0619917291636697	0.356559415214365	10.0123744445537
16500	0.348987550067631	-0.0557789302434944	0.353417032924725	9.08081955418432
14112.02	0.34425139764626	-0.0489642808984749	0.34771615663542	8.09511442259715
12011.13	0.342020818394052	-0.0443420234858361	0.344883248740433	7.38703026106268
10236.38	0.341988857199394	-0.0406128453446609	0.344391901262989	6.7724356229597
8750.684	0.33999763885109	-0.0358617134609754	0.341883689164419	6.02108741831489
7449.463	0.337813353813604	-0.0302013503607623	0.339160704649594	5.10880224451138
6363.206	0.33635342828831	-0.0294175702334188	0.337637412263122	4.99838697485392
5414.761	0.337034742979168	-0.0278082645748192	0.338180007619754	4.7167106095273
4620.567	0.334607433456499	-0.026052886204336	0.335620153453158	4.45212729410281
3941.215	0.333389679141088	-0.02397791128954	0.334250831543627	4.11371951269131
3361.769	0.332479674000631	-0.0234798109015364	0.333307718397786	4.03953809399793
2867.244	0.331026616077623	-0.0224223558191743	0.331785145225466	3.87505680791854
2442.658	0.329880645190826	-0.0217349729796791	0.330595900038012	3.76962054150077
2083.003	0.328365993406469	-0.0203704098814709	0.328997232852431	3.54983393128859
1777.843	0.326822686115525	-0.0197368393738744	0.327418098137896	3.45589807373468
1513.548	0.325333619778994	-0.0186420758530208	0.325867290703766	3.27954281030901
1292.065	0.323618877229296	-0.0155717779954326	0.323993299265724	2.75481316462553
1101.762	0.323154255748495	-0.0160666918067812	0.323553413819075	2.84630707605658
939.101	0.321711455086409	-0.0182828561939954	0.322230543500185	3.25261952351581
801.2801	0.319982082159441	-0.0143798367199577	0.320305030568026	2.57311277792907
684.3433	0.319851985364182	-0.0148972804481194	0.320198721899633	2.66665501347772
582.9476	0.315548354394189	-0.0142548536485898	0.315870170819315	2.58657041062111
497.0677	0.315414900884457	-0.0155094750689729	0.315795984010036	2.81506139565692
423.5089	0.317712170759608	-0.0127110589683668	0.317966341723271	2.29107315736033
361.5036	0.309333108125046	-0.0147916026181058	0.309686556521773	2.73766797556403
308.1262	0.313460636035114	-0.0109029215710107	0.313650193754638	1.99208315338045
262.7298	0.31106767291027	-0.0108266960023813	0.311256027212549	1.99337230841949
224.2111	0.304607942324778	-0.00751717205143407	0.304700683299178	1.41366908116659
191.2854	0.302689542908639	-0.0134090300959586	0.302986404768192	2.53652254721643
163.1722	0.31281331125401	-0.0214918320606649	0.313550739981621	3.93032890049922
139.1537	0.308343829145589	0.00352662663531221	0.308363996062428	-0.65528151705081
118.6706	0.30800553328444	-0.0122035961786288	0.308247199976778	2.26894953801695
101.1982	0.311431640109629	-0.0154758049561845	0.311815918452563	2.84482827198735
86.24196	0.306286953710566	-0.0126684732748077	0.306548834981334	2.36848663097605
73.61024	0.300544948342633	0.0144544176693871	0.300892333176565	-2.7534632760602
62.69291	0.251173235624352	0.74909798399009	0.790085934510938	-71.4636506879593
53.57697	0.448584338585753	-0.0501984397936369	0.451384306530625	6.38507031682765
45.65746	0.315003370158005	0.0315437583926613	0.316578792568984	-5.71841272275452
38.96512	0.383591485808156	-0.0718104213200176	0.390255255691281	10.6033517623414
33.18414	0.352384552241754	-0.0278541067680645	0.35348369682698	4.51952661137523
28.30617	0.347868822357462	-0.091805882874347	0.359779151284098	14.7838294525323
24.17237	0.265484110159066	-0.0692463208236716	0.274366298394256	14.618771770911
20.61345	0.308661559352647	0.211701040991216	0.374285037075719	-34.4449735952717
17.55618	0.433029025707359	-0.291186991642881	0.521827558880417	33.9185514322614
14.98558	0.285047139755615	0.39965800369603	0.490895499878694	-54.5024842111046
12.76553	4455.91685458169	-643.480669417616	4502.13975647795	8.2172976724088
10.8809	4374.76007951967	2466.1977321352	5022.01722491548	-29.4114018551766
9.278505	2009.77656315206	1452.09240645877	2479.47054644546	-35.8486514384068
7.923394	1515.90195937892	752.395741595304	1692.35283035767	-26.3968302527194
6.75822	2246.87102954555	1059.00731580152	2483.93355755185	-25.2356911738411
5.761429	1715.76911246844	-1803.09871990253	2488.98144649872	46.4216478967621
4.919708	3409.85960413106	-1101.59099085936	3583.38460551297	17.9035961061756
4.191257	4638.34619094131	156.169888462766	4640.97451200523	-1.92838055980221
3.564097	2148.50248075595	1579.2770980272	2666.49190176301	-36.3180986782693
3.051758	1140.23014908515	2008.59016661629	2309.66648031927	-60.4174254682936
2.604164	1632.78180402208	-362.759278711137	1672.5940074736	12.5260949903973
2.214424	1006.91059417063	2078.15452798907	2309.24125782789	-64.1488131090831
1.892567	778.2150775223	-475.14855147036	911.803077888763	31.4066528922063
1.607507	1456.50046733366	415.474694650133	1514.5998921292	-15.9210876505096
1.376413	1312.46845975736	123.983095092558	1318.31152074409	-5.39646487288153
1.17375	762.654717365226	546.256341221279	938.103516806057	-35.6123751028508
1.001604	352.075998506321	301.832277596697	463.745870626826	-40.6062523268992
