EC-Lab ASCII FILE
freq/Hz	Re(Z)/Ohm	-Im(Z)/Ohm	|Z|/Ohm	Phase(Z)/deg
6999984	22.2696017076056	90.5307787083488	93.2295932295932	-76.1802392574762
5969734	17.279726066744	90.3391649394209	91.9769191422153	-79.1714800185157
5091109	12.3558931679208	95.687981118635	96.4824223707993	-82.6422864540797
4341796	9.27109627756575	105.243168489194	105.650734686669	-84.9656876091147
3702781	10.1091720631311	118.117978254707	118.54978762858	-85.1082395085432
3157797	9.63314293835686	132.628275672128	132.977655832222	-85.8457507824356
2693047	9.69032907797558	150.271466641354	150.583585307905	-86.3103622585072
2296687	9.10297031119696	172.93579286442	173.17520758507	-86.9868535272182
1958656	9.68353236423654	199.671597820456	199.906272475936	-87.2234850966072
1670375	10.6355183380888	231.930802718435	232.174528103187	-87.3744594756242
1424531	12.1945210751885	269.538896831652	269.814609036422	-87.4095817884657
1214875	14.2537046919491	313.429162591454	313.753100479064	-87.3961745760596
1036062	16.3706311837168	364.834372573256	365.201474499042	-87.4307812268855
883578.1	19.2330654951314	425.189143606805	425.623916914249	-87.4100401547018
753531.2	22.3516031347786	495.87785208245	496.381343675	-87.4191501836444
642624.9	79.9679373830945	654.297774790707	659.166480568739	-83.0318977547686
548046.8	98.4140051265822	753.093424484546	759.496558522101	-82.5547957987632
467390.6	116.492086208118	864.661212327479	872.473161909721	-82.3269877794192
398593.7	136.199731280777	993.169543774591	1002.4650165878	-82.1913686693117
339937.5	157.439729540016	1141.70666700328	1152.51090316638	-82.1485114262359
289906.2	178.496004307137	1315.42951459851	1327.4847010156	-82.2724994931022
247234.4	201.972600615939	1516.55645774886	1529.94654185672	-82.4140773642791
210843.7	226.112124393575	1750.91904461637	1765.45863548203	-82.6415989047255
179812.5	254.877639647013	2024.70197793741	2040.68143291786	-82.8251172865059
153343.8	286.706492458301	2349.65719431035	2367.0846084566	-83.0431277275532
130781.2	315.906420813057	2721.06169878965	2739.3381746931	-83.3777923756891
111531.3	359.746846672389	3159.36970942519	3179.78533151597	-83.5039003863974
95109.37	411.059169795804	3663.50911837876	3686.49816241884	-83.5979800563579
81109.37	467.548696901423	4264.96934594442	4290.52040035003	-83.7439124067777
69171.88	531.948565250397	4952.75920216005	4981.24412076471	-83.8696766428089
59000	1231.86938619675	6191.70579436583	6313.05970418719	-78.7476631374574
50312.5	1277.48904674167	7178.22380879215	7291.0133255711	-79.9088767008491
42906.25	1707.11733667179	8233.00023818265	8408.12360298544	-78.2856872672434
36593.75	1895.69681074437	9389.3094003628	9578.76805304354	-78.5854587856559
31203.13	2115.37743332727	10772.31657479	10978.0520163153	-78.890100445327
26609.38	2340.89030895227	12438.706388031	12657.0606400614	-79.3419349625671
22703.13	2675.43039972597	14378.2099398525	14625.0076546391	-79.4592194232304
19359.37	2977.21851765162	16615.2450503445	16879.8755381917	-79.8412103852441
16500	3472.15548513899	19199.6180591589	19511.0532091571	-79.7491360675666
14112.02	3960.93094468972	22171.928070796	22522.9520339842	-79.8711760779294
12011.13	4712.60717389102	25739.4408475509	26167.29794075	-79.6246896344642
10236.38	7339.75590395326	23987.3241363232	25085.1297774329	-72.986687098976
8750.684	484.62397708721	35876.4181258918	35879.6911628707	-89.2260871821484
7449.463	8177.46056689722	39895.176018342	40724.6354294013	-78.4163216445333
6363.206	16195.5057482712	49687.0144860033	52259.8681109567	-71.946596813475
5414.761	18705.1592384885	56157.4480788739	59190.7252605392	-71.5778984723084
4620.567	22451.8820723214	63852.6816630451	67684.9463629218	-70.6273041944068
3941.215	26503.6029507549	71491.0866143075	76245.763388307	-69.6589482248562
3361.769	30178.5188819848	81964.6795322089	87343.8703786821	-69.7868324047294
2867.244	36462.1933088337	92078.4044201239	99034.9640351662	-68.3968940895215
2442.658	45280.510012463	104731.238291165	114100.643560803	-66.6187768681125
2083.003	52855.8324690986	116778.823941884	128183.590007657	-65.6477852927043
1777.843	64008.8018811737	130573.802698733	145418.859400942	-63.8853671148819
1513.548	77281.3346630041	145686.797463734	164915.274133521	-62.0557409876907
1292.065	90356.2343446531	163852.261664821	187114.437544575	-61.1254867115163
1101.762	117937.574027349	174486.05836249	210605.450856179	-55.9446877363843
939.101	124929.005136187	218382.750852333	251591.498652378	-60.2276618465463
801.2801	164409.575272322	226970.392173154	280260.713201941	-54.0817154655165
684.3433	188501.726311905	204454.375226467	278090.798790275	-47.3247325142914
582.9476	263508.753891	208787.656675083	336198.079942554	-38.3910771697865
497.0677	296284.59310318	205462.433760899	360554.256384901	-34.7398807020035
423.5089	317429.941791285	198788.16469729	374537.718219855	-32.0565531896453
361.5036	336983.709669852	193337.969528458	388506.873870002	-29.8442256327743
308.1262	366863.873725511	187174.053526262	411853.406151193	-27.0306877318947
262.7298	386550.153031922	181990.532205828	427248.843908984	-25.2113863041717
224.2111	400031.920124754	171548.902086741	435263.785451838	-23.2114943090014
191.2854	419311.431290928	166462.076539019	451144.876217086	-21.6525391738079
163.1722	433519.714246721	156337.378953329	460847.825967049	-19.8304932782462
139.1537	446675.101033281	152259.712547391	471912.773664907	-18.8228839701512
118.6706	446430.733940956	147954.455103444	470309.388585873	-18.3360417316285
101.1982	471120.085860195	146414.841384413	493347.181078944	-17.2642153138552
86.24196	478104.572001597	143870.958082439	499282.319282777	-16.7475620812519
73.61024	493769.002464609	133772.839012731	511569.154907155	-15.1587959519778
62.69291	485065.563219841	144206.24716842	506047.470445393	-16.556807242519
53.57697	499248.334362278	148708.317175941	520925.199007313	-16.5869219042311
45.65746	522792.75369093	146945.625040382	543051.820759542	-15.6995134119766
38.96512	527343.858529797	165345.964440195	552657.971159155	-17.4085491120266
33.18414	540998.961952494	169896.121184369	567049.000375779	-17.4344525339445
28.30617	553576.324818747	193182.132307879	586315.6859942	-19.2375106081755
24.17237	564512.661986819	194774.776891191	597169.79097779	-19.0360586474075
20.61345	581159.29180297	209130.378670396	617641.998031022	-19.7912857763254
17.55618	597677.684158609	227478.386230282	639503.73755212	-20.8370139665305
14.98558	609047.054720596	257631.132908137	661295.785187962	-22.9286995300587
12.76553	627730.116635466	281122.717868528	687804.5375199	-24.1247489273942
10.8809	646177.850806645	312318.97868444	717696.982938891	-25.7960037904334
9.278505	665308.235918829	343249.915939793	748635.795012567	-27.2903923116936
7.923394	685584.521095694	384503.261575089	786046.368688192	-29.2854542726509
6.75822	712573.789774301	424932.411286245	829655.928704696	-30.8090865597746
5.761429	750111.718461827	471552.677189115	886018.914887248	-32.1552451698565
4.919708	770828.592347591	520637.822448304	930183.025508572	-34.0361223718223
4.191257	801833.080144517	579577.826647957	989366.840740083	-35.8600074619063
3.564097	840857.428730391	644091.833471124	1059195.68796105	-37.4519019407419
3.051758	886840.44769201	718698.2713646	1141496.02930761	-39.0214166880996
2.604164	927096.464731319	802211.360781024	1225989.77250361	-40.8694519492485
2.214424	983804.107212687	893909.886148013	1329264.98709689	-42.2590980559808
1.892567	1034979.92984714	988947.355231723	1431502.82102628	-43.6970788823104
1.607507	1117481.95311926	1099008.488577	1567349.85676828	-44.5224761523979
1.376413	1156218.53944166	1223173.0978086	1683149.94523699	-46.6118412368558
1.17375	1278816.20205496	1370380.35546995	1874383.41789939	-46.9795254427251
1.001604	1383250.41711089	1499904.58015343	2040366.50286234	-47.3169574770115
