EC-Lab ASCII FILE
freq/Hz	Re(Z)/Ohm	-Im(Z)/Ohm	|Z|/Ohm	Phase(Z)/deg
6999984	42.7599467969199	70.3413413689829	82.318390142563	-58.7049119144271
5969734	41.9164652843265	65.5042675786604	77.7675969343845	-57.3846452671071
5091109	43.2015771035115	64.915694072125	77.9770709958792	-56.3561229994898
4341796	47.5706767885277	65.2397966503789	80.7415652381185	-53.9017207741761
3702781	55.0193929997086	64.2401405139894	84.5809036326374	-49.4211220613177
3157797	61.8915791036459	62.9124912572478	88.2527570115299	-45.4686758440108
2693047	68.6286205352679	61.1629970913946	91.9282316254138	-41.7079699528445
2296687	75.9458561359307	59.159227996382	96.2683090188427	-37.9173728535062
1958656	82.9275307516587	56.0599244226453	100.098403997466	-34.0591266272968
1670375	89.5207065198986	52.4524865776634	103.755579339146	-30.3671355645005
1424531	95.2731854218821	48.2104600376433	106.776534488967	-26.8404772030671
1214875	100.047883498385	43.9744473833555	109.285548061845	-23.7271219471514
1036062	104.026009174377	39.6688126989925	111.332947889182	-20.8736259696393
883578.1	107.226733776282	35.7510785780796	113.029695460201	-18.4391970530639
753531.2	109.891078662001	32.060780929152	114.472454517605	-16.26463314447
642624.9	112.050009577014	28.7206708329631	115.672302559015	-14.3765481334415
548046.8	113.804127221513	25.714367675195	116.673082060882	-12.7323368783326
467390.6	115.223549038575	23.1990387773956	117.535788818726	-11.3837030905757
398593.7	116.347175715273	21.049564367678	118.235990531604	-10.2550392595254
339937.5	117.354787703068	19.2187619417864	118.918068464835	-9.30056032777289
289906.2	118.174897351756	17.7596287063711	119.501927917026	-8.54659943558229
247234.4	118.914013735889	16.6049777690745	120.067763989718	-7.94929666373636
210843.7	119.55585669028	15.7314112924483	120.586401265644	-7.49603548158632
179812.5	120.231581959241	15.1840530718108	121.186586584941	-7.19778230133097
153343.8	120.761378964702	14.8507097716023	121.671090363228	-7.01078606573412
130781.2	121.386408661379	14.8323192115585	122.289238696219	-6.96649069859256
111531.3	121.959690292013	15.0191695518173	122.881005489661	-7.02054926656315
95109.37	122.577823343552	15.4776203099171	123.551121023247	-7.19652179418168
81109.37	123.222441015327	16.1674386131349	124.278542158674	-7.47481312485467
69171.88	124.171191314922	17.0832856024716	125.340828940703	-7.83349043418452
59000	124.671209074653	18.4633931466642	126.030977377088	-8.42408387024947
50312.5	125.533044253745	20.0124536569198	127.118226470412	-9.05786113533343
42906.25	126.396522129075	21.7863721252542	128.260386779028	-9.77970774310695
36593.75	127.398118959392	23.9943862389035	129.63800093095	-10.6662396099349
31203.13	128.503830669117	26.5672907080072	131.221398530121	-11.6809421355337
26609.38	129.741237124026	29.6257530114349	133.080704281152	-12.862667587991
22703.13	131.176911368189	33.0226516308918	135.269647729389	-14.1301075265999
19359.37	132.7478243225	36.9843002910712	137.803567915992	-15.568139919131
16500	134.563666858582	41.5012342440808	140.818084357832	-17.1404621596849
14112.02	136.554776641664	46.5530283756187	144.271935852389	-18.8248091083428
12011.13	138.85362964626	52.4943831237549	148.445244873267	-20.7093761585092
10236.38	141.506413986387	59.1258987474328	153.362111037826	-22.676729880494
8750.684	144.41662325438	66.5747356202716	159.023131949747	-24.7492671945089
7449.463	147.366887654377	75.4037986206824	165.537706953329	-27.0976435798336
6363.206	151.408659364231	84.69228995098	173.48592481125	-29.2210022502767
5414.761	155.76361184015	95.8122118220079	182.872312578242	-31.5962102491474
4620.567	160.559117992342	108.089249380381	193.552360363011	-33.9486489052396
3941.215	166.036849021963	121.963885601476	206.018020144239	-36.2994832795055
3361.769	172.088664536604	137.830307942464	220.480616493846	-38.6921493023939
2867.244	179.358125577186	155.629391894335	237.46546029257	-40.9482393756569
2442.658	187.532405664094	176.019924226921	257.199177485103	-43.1862411713276
2083.003	196.757800295708	198.763202545915	279.679178101471	-45.290503158459
1777.843	207.361066590056	224.157799237008	305.360984567683	-47.2290943991282
1513.548	219.586759104882	253.448021515702	335.341981243639	-49.0944215265341
1292.065	233.65583020867	285.93458247939	369.26092732398	-50.7454968160287
1101.762	249.736494763116	322.72436132378	408.067800994406	-52.2659205394997
939.101	268.126628464032	364.063817090148	452.144171482656	-53.6290043228497
801.2801	289.349581066501	410.156337941784	501.947608438544	-54.798497126381
684.3433	313.068099544903	461.026881594175	557.276789849629	-55.8208715568566
582.9476	341.151551595088	519.382932651387	621.40406490889	-56.7014847696608
497.0677	373.136648293623	583.42282169572	692.541079774475	-57.3984535499698
423.5089	409.328993353782	655.81760007438	773.076289487227	-58.0296238570859
361.5036	449.828793015128	734.73052190047	861.495724213176	-58.5235134764887
308.1262	497.511428422211	824.136004556478	962.661817782872	-58.8816120984454
262.7298	550.734948703973	922.029275422344	1073.98648430035	-59.1498136423462
224.2111	610.350707703955	1029.80185525604	1197.08807006147	-59.3453068420448
191.2854	678.254949757245	1150.32254648916	1335.39197909509	-59.4754828530985
163.1722	754.709967346553	1283.6640565639	1489.08715155504	-59.5472744648284
139.1537	840.295167454211	1430.85076405383	1659.3462198831	-59.5755785799079
118.6706	935.629383706765	1594.07968618096	1848.37560835191	-59.5896160458886
101.1982	1043.56113242208	1774.31676490355	2058.45082994951	-59.5381644358858
86.24196	1163.68825591713	1974.32286852642	2291.7506727709	-59.4844209947026
73.61024	1295.66478919499	2193.86481870545	2547.89915199036	-59.4345163707467
62.69291	1444.88836175597	2440.53421515871	2836.17870263815	-59.3728661119906
53.57697	1606.95471215955	2708.20741528796	3149.07777788236	-59.3166016565087
45.65746	1789.02005216471	3010.56837566005	3502.01580401514	-59.2792448082662
38.96512	1988.08468547858	3340.22102198022	3887.10138693514	-59.2390804668275
33.18414	2214.61435160595	3711.86845376039	4322.32392867085	-59.1784042363232
28.30617	2458.07488427292	4120.92958631997	4798.35313332612	-59.1845348847311
24.17237	2732.3870667848	4577.09540231207	5330.64174416168	-59.1640802914449
20.61345	3034.31383640547	5081.57941876408	5918.57329489196	-59.157720459919
17.55618	3368.59396101445	5650.09920153661	6578.07314199133	-59.1965669984288
14.98558	3735.46719356234	6275.16249173598	7302.83365905801	-59.2355854242772
12.76553	4145.22643717651	6977.79210607031	8116.18659784287	-59.287151625839
10.8809	4597.70840913293	7755.94021537	9016.29254404521	-59.3406085881247
9.278505	5095.42652217153	8624.95660532679	10017.6468238114	-59.4263803700558
7.923394	5656.33596910129	9597.13363985734	11139.9780384268	-59.4858533891904
6.75822	6277.29538804992	10682.3437193705	12390.1938938665	-59.5601087194393
5.761429	6972.91623259068	11870.7583845073	13767.2243175623	-59.5699062977361
4.919708	7699.02861612438	13218.2842925401	15296.9958250081	-59.7812131325803
4.191257	8583.26521551638	14754.961573175	17069.8955118584	-59.812553923974
3.564097	9523.68543438503	16448.0464237834	19006.2835770713	-59.9284632859289
3.051758	10561.184321594	18321.6258977403	21147.5906384494	-60.0394452108458
2.604164	11704.6340752121	20411.4881422507	23529.2861561046	-60.1685898978683
2.214424	13068.1557583511	22865.0678146774	26336.0593311588	-60.2505801583515
1.892567	14465.1794320582	25514.7510106525	29329.9153619173	-60.4496256963799
1.607507	16152.6051013452	28596.8414260688	32843.3553570235	-60.5405540984672
1.376413	17945.707237445	31967.7231607373	36660.3836904857	-60.6914711817047
1.17375	19936.6823455589	35806.5492460114	40982.6825849011	-60.8914334522053
1.001604	22228.8783520955	40110.0129629174	45857.7820296366	-61.0048790956412
