EC-Lab ASCII FILE
freq/Hz	Re(Z)/Ohm	-Im(Z)/Ohm	|Z|/Ohm	Phase(Z)/deg
6999984	44.4188868557294	79.6011514560867	91.1558052053568	-60.837690011022
5969734	42.5080059142888	68.2325924225807	80.3904051209797	-58.0776377203178
5091109	43.8702753974622	65.8900483304337	79.1586984003404	-56.3439132688756
4341796	46.3227427956406	64.0579166112508	79.0519650652977	-54.1278614863363
3702781	53.6098607927696	64.6155140298334	83.9594058313881	-50.3183625093366
3157797	57.8285390761607	63.8923303471376	86.1763877687549	-47.8519568182149
2693047	62.927479979699	66.0573216487626	91.2328749958232	-46.3900206264709
2296687	71.093158672373	68.0976629426699	98.4455631720835	-43.767140161499
1958656	79.6883556743569	68.0693754083278	104.803024281567	-40.5037788252401
1670375	87.940231437424	67.7051650818746	110.984114557136	-37.5926662118496
1424531	97.075538052625	66.0203726847739	117.398252532323	-34.2193370859712
1214875	105.285899832435	63.6367937912917	123.023421459334	-31.1495609999532
1036062	112.833613727682	60.4205185550041	127.992435125297	-28.1683068932828
883578.1	119.424986547431	56.5261739676827	132.126968311843	-25.3291062127592
753531.2	124.78306386701	52.146659620068	135.240848627807	-22.6799785511924
642624.9	129.708000264315	49.9710272811713	139.000967263192	-21.0695718059961
548046.8	138.364941469873	44.8671106379474	145.457604287158	-17.9661401790921
467390.6	140.250280185033	39.6983990223608	145.760433509642	-15.8043761476414
398593.7	143.819527760826	36.2782790791212	148.324543142022	-14.1574376134276
339937.5	146.462415205485	32.6414242871087	150.055661830252	-12.5639273936098
289906.2	148.821690671577	29.4109381913676	151.700029333032	-11.1790482957329
247234.4	150.610257128708	26.5685280578256	152.935725831262	-10.0043816833116
210843.7	152.216085563487	24.0818796249625	154.109291188241	-8.99016617183872
179812.5	153.663450280908	21.871308229169	155.212145387816	-8.10064346532017
153343.8	154.61129993766	20.1091220002647	155.913536474659	-7.41042985741582
130781.2	155.656920687667	18.5874095540411	156.762778592038	-6.80959766555188
111531.3	156.431971854718	17.4774756674422	157.405285724658	-6.37497480047745
95109.37	157.140452905898	16.5333566571233	158.007828356137	-6.0062134339533
81109.37	157.945363540268	15.9424850582294	158.747915557022	-5.76372623589803
69171.88	158.496382475768	15.6149528174016	159.263712155012	-5.62658305805552
59000	158.88453565271	15.7576651534838	159.6640212467	-5.66389235080105
50312.5	158.456643071961	17.7880289605861	159.451941687574	-6.40509519176747
42906.25	163.399281160596	16.3069382125048	164.210965887379	-5.69913956844191
36593.75	163.07139390352	16.3903918755273	163.893027476676	-5.73955314652146
31203.13	163.67570315705	17.3227040515125	164.589829210711	-6.04143887919794
26609.38	164.384883714791	18.1822801960422	165.387379527741	-6.31171453031705
22703.13	165.257467859553	19.5006906608079	166.40404928847	-6.72988777709328
19359.37	166.338604530219	21.1590888317563	167.678974225306	-7.24937142120455
16500	167.40928152629	22.9617792724603	168.976657703086	-7.80993040964874
14112.02	168.683795779785	25.1156412906607	170.543303580402	-8.46865998671065
12011.13	170.072876488447	27.73666654057	172.319778283972	-9.26264771046909
10236.38	171.52955631319	30.649844491956	174.246382046747	-10.1310053560355
8750.684	173.19775755722	34.001606875945	176.503746399321	-11.1068670727023
7449.463	175.076818458333	37.6598772958329	179.081430414852	-12.1396234984256
6363.206	177.011713935741	42.2101112321737	181.974834415919	-13.4122429755025
5414.761	179.118500580909	47.2884306301805	185.255588098763	-14.7890204501562
4620.567	181.40850756642	53.6981727487904	189.189165583114	-16.4891180086023
3941.215	184.226609177722	59.4760004130784	193.58935444455	-17.8922343530981
3361.769	186.907727279019	69.1037133936734	199.273233830846	-20.2904122299757
2867.244	191.551423291672	71.2623100055576	204.377749748826	-20.4065622342046
2442.658	17.8987938156726	67.0233000351095	69.3721094363741	-75.0479027669592
2083.003	-175.485232764379	25.5638462250025	177.337466859612	-171.711726975039
1777.843	198.54670084127	107.321778122298	225.696159635658	-28.3928490531946
1513.548	211.517203396585	122.347784430418	244.353243661189	-30.0463536837406
1292.065	214.293364141287	134.025627202362	252.753861814171	-32.0231211022994
1101.762	222.640798525274	154.863707803917	271.204154029301	-34.8215672948553
939.101	229.037354024615	179.405424631396	290.937133975312	-38.0716703877349
801.2801	231.834566830202	195.711559621864	303.397892126774	-40.1705981377935
684.3433	421.489419638686	216.776510149637	473.967705883019	-27.2172427899893
582.9476	422.692413516728	254.563585754272	493.428308507598	-31.0581627724739
497.0677	437.532493533688	294.485043730096	527.405085184551	-33.9428677610868
423.5089	455.250986166054	326.334746232968	560.131972845775	-35.6338552905902
361.5036	460.052958084755	378.265483982864	595.595081087246	-39.4277812747182
308.1262	478.628235264815	427.514811930496	641.758445221158	-41.7714995131686
262.7298	506.32346658463	487.078502411284	702.573071164485	-43.8901599296915
224.2111	513.974982808077	555.453925662816	756.769017922111	-47.2211646632436
191.2854	534.604166411347	633.801123053358	829.159501138393	-49.8527426275456
163.1722	539.174960037832	709.022841055933	890.742963301325	-52.7489010424831
139.1537	595.314642713672	794.369615152439	992.684546725062	-53.1514611893421
118.6706	604.360130362487	899.454427694691	1083.63713237935	-56.1021136201745
101.1982	718.651516666426	1069.17338098972	1288.25141995805	-56.0927343010682
86.24196	667.594183406139	1241.39360547764	1409.51767546153	-61.7296134107022
73.61024	860.281265359451	1422.20468510685	1662.15222584104	-58.8305615588993
62.69291	789.439234779089	1128.80569586799	1377.46746038976	-55.0326764364069
53.57697	1847.84054005618	1732.18253913241	2532.77930549629	-43.1496177090629
45.65746	1844.24136870879	1914.38524441905	2658.21313857754	-46.0691356133079
38.96512	2310.53401143896	2267.5715178033	3237.35200532302	-44.462332772643
33.18414	2172.12766473019	2491.95960655186	3305.75275430156	-48.9228206668924
28.30617	2822.55081702245	2920.87779142231	4061.81242638039	-45.9808027100326
24.17237	2747.64546969754	3576.75335127002	4510.29047434539	-52.4686960327744
20.61345	2240.51096103166	3603.78503872482	4243.4839426867	-58.1303498374699
17.55618	2311.55017406364	4268.22556079701	4853.96885497369	-61.5612784104928
14.98558	3243.10061652448	4473.95643301761	5525.75676024933	-54.062234900482
12.76553	3409.67383193974	6077.40754703789	6968.55495300193	-60.7057951265829
10.8809	4097.10879685091	6192.14764592043	7424.89009764529	-56.5089079251394
9.278505	2575.54493329875	7394.31214259367	7830.02450606312	-70.7960402650728
7.923394	3550.39500958638	7878.61833709783	8641.63940613991	-65.7419222584443
6.75822	15255.567710125	8987.66854756849	17706.228623825	-30.5040495592249
5.761429	14415.6179315166	9893.52477724261	17484.0462383676	-34.4620420079887
4.919708	17397.4889156879	11991.8247644089	21129.9901029739	-34.57790553332
4.191257	20263.5578183174	11863.8749062351	23481.1265327515	-30.3480503403447
3.564097	16093.2341512712	14648.8484500233	21761.9150434742	-42.3099938969223
3.051758	20501.8773711389	19088.3126259396	28012.3304037137	-42.9551271855057
2.604164	22111.9027611667	20455.4500911707	30122.4448236139	-42.771534319212
2.214424	20794.4000413444	21662.4335960691	30027.7888360693	-46.1712538811341
1.892567	19891.9215113239	23773.3326587851	30997.740032427	-50.079679751041
1.607507	23269.0428777141	25950.4644193726	34855.0564484699	-48.1183248971712
1.376413	24468.7229761754	31154.8999426008	39614.9743723037	-51.8542904707438
1.17375	35810.7614207808	34472.7487427844	49706.9516206659	-43.9093712045623
1.001604	33580.5335182249	20890.9946859822	39548.5257669406	-31.8864133723812
