EC-Lab ASCII FILE
freq/Hz	Re(Z)/Ohm	-Im(Z)/Ohm	|Z|/Ohm	Phase(Z)/deg
6999984	17.3706547553779	87.6001900051788	89.3058393139775	-78.7840459574482
5969734	21.7427859283868	83.28769067693	86.0789646674705	-75.3691029069095
5091109	27.0989895232152	76.5760145382247	81.2295588793743	-70.511967790247
4341796	19.7003219574609	82.1685495941135	84.4971788146084	-76.5175395114697
3702781	27.0142884640705	91.7059787533847	95.6020832426588	-73.5863447273599
3157797	25.3460125654916	98.1642499667041	101.383629469928	-75.5224264128865
2693047	27.0232369090651	112.606573072347	115.803694380367	-76.505392806213
2296687	25.8724297027371	128.486822197017	131.065808268255	-78.6150234078846
1958656	31.340523902574	142.479318150503	145.885518606612	-77.5944709831976
1670375	34.32668131884	166.237910224459	169.744996527616	-78.3328989895622
1424531	35.7461976958533	189.429452438195	192.772685048337	-79.3136881432672
1214875	42.0769265702586	214.816060459762	218.898167148679	-78.9175451237137
1036062	50.8163659750684	247.304235119342	252.471162232194	-78.3884185999104
883578.1	54.7064930675132	288.633388086272	293.772076790675	-79.2676796323182
753531.2	64.424444767701	332.305871693603	338.493281241551	-79.028125978174
642624.9	74.6178523224277	387.467404813194	394.586889896108	-79.0995165194473
548046.8	75.9533673306319	440.3477592746	446.850157331318	-80.2136329520791
467390.6	91.4121702446636	510.576026639327	518.694576651464	-79.849460977494
398593.7	253.117166848086	714.013483623954	757.551024651156	-70.4806269988533
339937.5	288.282597745256	770.722976250146	822.873478903431	-69.4921029149141
289906.2	334.696517537691	861.956834685341	924.657419649369	-68.7788850515353
247234.4	397.821985784454	967.608365087747	1046.19705627633	-67.6505019698046
210843.7	450.182554082626	1177.12218410697	1260.27019655197	-69.0709789354929
179812.5	443.681643707895	1072.91330954173	1161.03245895846	-67.5334466922594
153343.8	557.451034168589	1581.99112516775	1677.33347179538	-70.588916022133
130781.2	765.405843822418	1574.79171694732	1750.94690311368	-64.0785684834
111531.3	818.473492003574	1986.2922318737	2148.31461557992	-67.6053528955483
95109.37	715.226473298796	1684.87148325276	1830.39362520355	-66.9988197736228
81109.37	1055.6468414926	2217.70319723321	2456.13471230137	-64.5451280159751
69171.88	1239.43933578507	2480.49873541344	2772.91973260659	-63.4499191905825
59000	1462.90195010391	2773.18971294813	3135.38885939514	-62.1876358721298
50312.5	1624.6402718199	3104.46279498021	3503.87574811598	-62.3758525078303
42906.25	2079.11120703762	3483.76471615609	4057.00875137872	-59.171242263884
36593.75	2420.31898273013	3787.44226886702	4494.73724684373	-57.4198821715077
31203.13	4127.24972192083	4514.31358876293	6116.63448677335	-47.5646184839568
26609.38	4649.05823256058	4799.32126528807	6681.85805425299	-45.9111310421447
22703.13	5224.88741304952	5096.88301855739	7299.15508698795	-44.2894885945859
19359.37	5740.34042748589	5347.53285637283	7845.22886048685	-42.9710439530545
16500	6545.66314931751	5356.73147217707	8458.1486230348	-39.2956400184272
14112.02	7078.37445035702	5618.66705119373	9037.30071933191	-38.4418183121233
12011.13	8088.48865980991	5635.94855687885	9858.37536999167	-34.8682576255805
10236.38	8793.65632894383	5694.22391939235	10476.2864449076	-32.9245785196905
8750.684	9431.67808421228	5574.22266181659	10955.7523597296	-30.5835417237214
7449.463	10184.5249124916	5361.35021147475	11509.5014567635	-27.7632715687489
6363.206	10977.2911517184	4977.88504624698	12053.2261475194	-24.3929218234052
5414.761	11549.1296400144	4699.26325820447	12468.5793341411	-22.1410773674041
4620.567	12177.8611130162	4392.94630963271	12945.9753810683	-19.8360051322353
3941.215	12639.3387472808	4203.862186156	13320.1104067761	-18.3971992466808
3361.769	13152.1413468041	3784.11111528037	13685.6976051315	-16.0514928446813
2867.244	13538.1536930577	3438.09424123883	13967.895239745	-14.2493686916564
2442.658	13836.3347955948	3147.80108399881	14189.8841517545	-12.8167851277569
2083.003	14084.571951691	2765.03625261513	14353.4174516259	-11.1068670727023
1777.843	14179.7799607283	2550.08789214888	14407.2588646264	-10.195079226265
1513.548	14416.9055406148	2399.80861766872	14615.274433566	-9.45068672925307
1292.065	14656.3757092872	2076.27812055594	14802.7119057855	-8.06308608184934
1101.762	14756.3593351096	2013.82389121283	14893.1402830866	-7.77123856974355
939.101	14958.1238787235	1834.68551116632	15070.2203333635	-6.99267486983003
801.2801	14976.9994037642	1657.18208660883	15068.4028220821	-6.31400636149757
684.3433	14980.7725271059	1655.8769473509	15072.0096196114	-6.30749756094489
582.9476	15150.3338706231	1522.93639162104	15226.6855107825	-5.7401834000961
497.0677	15173.8134034391	1631.92556021652	15261.3169234006	-6.1384979296931
423.5089	15505.4213542107	1470.73762815699	15575.0171923658	-5.41847218179251
361.5036	15569.023953742	1479.7828081068	15639.1900056032	-5.42945864751414
308.1262	15608.3828766553	1468.28917922881	15677.2921494149	-5.37403071041319
262.7298	15468.1015384604	1768.94252073866	15568.9216982358	-6.52404123003663
224.2111	15571.3047538898	1633.85103171383	15656.7876951929	-5.98995862130544
191.2854	15711.6377383299	1654.74400618574	15798.5359494644	-6.01220657249037
163.1722	15755.3903281802	1971.25768429011	15878.2297895952	-7.13158275768155
139.1537	15974.5640582814	2126.97586078294	16115.5429062905	-7.58419076794514
118.6706	16152.905769428	2413.27881742549	16332.1853848974	-8.49726203984358
101.1982	16136.3956415819	2551.19324570935	16336.8250060597	-8.98420168119141
86.24196	16378.6120994895	2811.46846823812	16618.1614281918	-9.74017365524292
73.61024	16143.8607245586	4155.18615874066	16670.0273277442	-14.4337808875972
62.69291	13773.5462010737	1686.02072623125	13876.355459644	-6.97886085738943
53.57697	16436.6388088891	3900.03813437649	16892.9983360997	-13.3481289982274
45.65746	28273.1752574198	6663.04964464456	29047.6964612303	-13.2607529344699
38.96512	28847.8743272589	4848.80717752314	29252.5346636172	-9.54120260172784
33.18414	28977.8360655921	6151.32150297665	29623.5335380051	-11.9846613331546
28.30617	27886.3260148141	4689.27862696078	28277.8449080861	-9.54537946405434
24.17237	29231.6074110495	7463.73719510992	30169.4256616097	-14.3233604613195
20.61345	30326.4032941762	9721.11599060844	31846.3629456157	-17.7732310190495
17.55618	31317.5059770112	10567.2702775273	33052.2825495978	-18.6456165579156
14.98558	30458.6067072894	10307.2908783575	32155.3567512539	-18.6959852776856
12.76553	30997.3720497968	11624.1923520216	33105.270302934	-20.5563334018518
10.8809	30883.6911296617	13391.1385349198	33661.9216482625	-23.4415082158566
9.278505	31494.9087397966	15760.3217887054	35218.134808812	-26.5837749221147
7.923394	32128.335478589	18335.751325289	36992.2926741179	-29.7135511484388
6.75822	32632.8801668486	19748.0833443143	38143.0421408398	-31.1806095828713
5.761429	34569.7967314892	21428.6450328774	40672.5666020912	-31.7933707560299
4.919708	34685.5059460473	26142.6830470366	43434.1363403383	-37.005562088757
4.191257	38483.3138012243	30775.0625987926	49275.4494559218	-38.6492863297401
3.564097	31316.4534684785	41822.7655544292	52248.1002187078	-53.1745112814402
3.051758	40687.8973297026	52654.7930087171	66543.4611055306	-52.3056895400597
2.604164	35968.0554026445	46162.9284772248	58521.0814582325	-52.0758990867445
2.214424	30654.1217076265	70706.2654454259	77065.2395759918	-66.5612519054814
1.892567	44322.9823697834	43048.322550776	61787.4165230088	-44.1641712656349
1.607507	40821.8904483958	64376.8403650121	76228.6318594469	-57.6208757660395
1.376413	49797.228182666	73894.7714762072	89107.8065390311	-56.0242142783485
1.17375	54950.1911731663	81480.1931802805	98277.8987904369	-56.0042982653897
1.001604	56795.1965092702	86195.8569828652	103225.094369234	-56.6187668527778
