EC-Lab ASCII FILE
freq/Hz	Re(Z)/Ohm	-Im(Z)/Ohm	|Z|/Ohm	Phase(Z)/deg
6999984	20.4125686812773	1.3257325871515	20.4555744739789	-3.71596304398677
5969734	13.4719198847489	1.98874256408303	13.617919164369	-8.39742987361998
5091109	9.86746764171223	-5.1955800185916	11.151724951317	27.7684339184831
4341796	9.71954506282599	-6.89239710498172	11.915313427731	35.3415035756247
3702781	6.04045463284304	-5.84399904174123	8.40472587127667	44.0529601576
3157797	4.17914302021171	-5.38433394986423	6.81588500981676	52.1825609098861
2693047	3.28699281396253	-4.4784950589812	5.55528934911228	53.7231813956354
2296687	2.14882181115406	-3.76337117946109	4.33363563425558	60.2743579068494
1958656	1.69538171267189	-3.19956994325394	3.62098977814579	62.0818678631486
1670375	1.53925385591816	-2.85505701037704	3.24355560542162	61.6694528422135
1424531	1.11241556333085	-2.4646978042195	2.70410866121632	65.7084615232087
1214875	1.10332028558513	-1.93047342354792	2.22352047249592	60.2508093414695
1036062	0.79559480572529	-1.83409493618808	1.99921867984666	66.5497354537993
883578.1	0.961945900310984	-1.41455431970365	1.71064427585555	55.7829417508189
753531.2	-0.322018173480811	-16.0125326149263	16.0157702421124	91.1520848104807
642624.9	1.8965764854624	8.007967883821	8.2294928150839	-76.6757904544849
548046.8	0.809268671078976	3.88213816698769	3.96559106938329	-78.224781853621
467390.6	5.88878267806841	1.77397594332129	6.1501830929657	-16.7647508151058
398593.7	-2.87293159880979	-2.21624189581342	3.62842446692754	142.352624707402
339937.5	-0.51504165694079	-2.80271425164056	2.84964472956427	100.41280165318
289906.2	0.188281772986683	-2.33128055352957	2.33887131867149	85.3826289966314
247234.4	-2.05409772603898	-1.40248620590117	2.48722436178596	145.675722623382
210843.7	-0.695302997092109	-1.47980709828232	1.63501538399246	115.166980539815
179812.5	0.197112142942568	-2.94854507412758	2.95512626651679	86.1754306977539
153343.8	-0.401901637073618	-1.22634599499387	1.29052292708032	108.145153577368
130781.2	11.3621207164405	18.1922215703503	21.4488860512542	-58.012778897909
111531.3	0.92979774262545	-0.219847111906627	0.955435290747138	13.3030486789065
95109.37	0.613311712591781	-0.21462535296196	0.649780962275988	19.2872376152149
81109.37	0.5994412602014	-0.187928494973054	0.628209315160703	17.4065265710098
69171.88	0.611524018596764	-0.177781971294565	0.63684225255405	16.2101792356208
59000	0.58960982282493	-0.130024625665055	0.603776569975171	12.4361921827633
50312.5	0.576711234562843	-0.096612840389039	0.584747713975041	9.51009672303019
42906.25	0.614398980596177	-0.11400737898208	0.624887021644701	10.512194177136
36593.75	0.596362136102718	-0.101963680230145	0.605016024137437	9.70239281823199
31203.13	0.586432155558971	-0.0945994158045442	0.594013234317303	9.16364060347048
26609.38	0.583275021222329	-0.0804405087364221	0.588795742025775	7.85223188366325
22703.13	0.58009210254438	-0.0685504158839398	0.584128416490946	6.73947909058377
19359.37	0.575120557488181	-0.0633061453470938	0.578594265167072	6.28151965451366
16500	0.571884970048352	-0.0553556526960198	0.574557801489638	5.52872587735174
14112.02	0.569181333004315	-0.0505636452666055	0.571422848740944	5.07658654656456
12011.13	0.56314434745388	-0.0451245198441107	0.564949359111432	4.58129833718388
10236.38	0.558480002187806	-0.0410966409526714	0.559990041644746	4.20861564750985
8750.684	0.552250300852716	-0.0376158751413474	0.553529898790088	3.89661549087593
7449.463	0.547870823098681	-0.0332235823726587	0.548877258800634	3.47023920734681
6363.206	0.537481736968775	-0.0312854167280227	0.538391488486601	3.33127975329373
5414.761	0.529901213218758	-0.0291261330781196	0.530701071601326	3.14610896123217
4620.567	0.523810120463606	-0.0267217883686561	0.52449127378224	2.92037046544417
3941.215	0.51782650041075	-0.0253570128551268	0.518446971857855	2.80342977945797
3361.769	0.511523801868943	-0.0240778182485061	0.51209016902306	2.69496714996632
2867.244	0.50743253130188	-0.022818705810775	0.507945338750453	2.57479612793117
2442.658	0.501810665687996	-0.0214934056842738	0.502270754360771	2.45257678177843
2083.003	0.496180168940769	-0.0199573038275809	0.496581366974393	2.3033029414974
1777.843	0.492520955781239	-0.0193838473980896	0.492902247330663	2.25379193954676
1513.548	0.498977639120944	-0.137583555791603	0.517598221757931	15.4151773765649
1292.065	0.438891576250256	0.0735491370983822	0.445011563076007	-9.51319069512389
1101.762	0.484337330829263	-0.316790752006041	0.578739173195808	33.187514581454
939.101	0.637442244616406	0.357439463457673	0.730818435220754	-29.2810997934079
801.2801	1.69549961350726	0.255932522273955	1.71470708733613	-8.58388752888941
684.3433	0.147268213894242	-0.599245680745527	0.617076423723812	76.1928443289691
582.9476	1.47099681378033	-0.649879858548543	1.60815902717951	23.8356286943933
497.0677	0.143516056280872	-0.500984644228681	0.521135752144633	74.0146879749997
423.5089	1.62414914272039	0.162497799543172	1.63225793692533	-5.71348815050537
361.5036	0.83171122081539	-0.941633296467588	1.25635059591129	48.5469832715984
308.1262	1.13562123757968	0.634372755648825	1.30079375319513	-29.1882920897527
262.7298	0.55935615043025	-0.782242506947978	0.961656197765296	54.4326750333459
224.2111	0.00281624215431496	0.233095684163709	0.233112696341533	-89.3077909637341
191.2854	0.720543064185716	-0.707445098924401	1.00978258815366	44.4744794778998
163.1722	0.528222247910511	-0.261245453736163	0.589294434290234	26.3158426683776
139.1537	0.403357973468144	-0.244765618465141	0.471813377028408	31.2502067662458
118.6706	0.780009800603122	0.108899778093314	0.787575044491441	-7.94788145798239
101.1982	0.370012914975649	-0.25467488382828	0.449186880598404	34.5391105610117
86.24196	0.795571853230297	-0.0155731675548593	0.795724259527118	1.1214107583217
73.61024	0.808858882512944	-0.0546559306085712	0.810703375206232	3.86569410458831
62.69291	0.0246296672612982	1.29659778761019	1.29683169430155	-88.9117625357397
53.57697	0.52439354633569	-0.53666581440087	0.750332451507377	45.6626564351303
45.65746	1.14298900972476	0.108586947609716	1.14813544564341	-5.42696112448517
38.96512	0.536846196993504	-0.0561390772103879	0.539773503625754	5.96983634354044
33.18414	0.43025478371208	-0.0636869475078221	0.434942761969886	8.41986690087731
28.30617	0.501761979523255	-0.0182352784347975	0.502093227871767	2.08135513448198
24.17237	0.52602466358637	0.156207210593425	0.548728201701473	-16.5392059790526
20.61345	0.507831810820683	-0.29314024561414	0.586365373875481	29.9952114709472
17.55618	0.624061796200568	0.0613346245093971	0.627068625942	-5.6131701160715
14.98558	0.523887478209625	-0.487049853350326	0.715315070072912	42.9131179199667
12.76553	0.470355314219812	-0.450088503006825	0.651009817248359	43.7386355111912
10.8809	1.15267422113382	-0.483232263040512	1.24986850512753	22.7447514299319
9.278505	0.80008666861522	-0.120197855639734	0.809065017038922	8.54371172829483
7.923394	0.725012288569656	-0.398061248877426	0.827100705135031	28.7685775865075
6.75822	1.11843536623828	0.14710725598512	1.12806835485091	-7.49307328978549
5.761429	1.25434424862714	-0.153361163126852	1.26368474724498	6.9706159947175
4.919708	1.72135367143949	1.17288284038432	2.08295766146271	-34.2694365155775
4.191257	1.18491122582666	-0.84416894236232	1.45486625376326	35.4672964595457
3.564097	1.33669270876222	0.485079755989556	1.42198796314489	-19.9456062288659
3.051758	1.69459297338859	-1.00475656856268	1.97007134579634	30.6645121193293
2.604164	1.76187868618197	1.70078111292951	2.44885134275645	-43.9891383888004
2.214424	1.5369382516574	0.194608913887977	1.54921006282956	-7.21645499587428
1.892567	1.0644341625431	0.459317863244878	1.15930711456657	-23.340856719986
1.607507	3.34274966465771	1.66026613740327	3.73235300682789	-26.412523566728
1.376413	0.695776591975495	0.58677675319248	0.910171425627141	-40.142299752292
1.17375	2.74384198788515	4.70416276153694	5.44589902050272	-59.7458616366207
1.001604	-0.00479788909214103	-1.4280767048816	1.42808476455889	90.1924950951956
