EC-Lab ASCII FILE
freq/Hz	Re(Z)/Ohm	-Im(Z)/Ohm	|Z|/Ohm	Phase(Z)/deg
6999984	29.4679090433892	41.1721066039299	50.6310184135657	-54.4077513692577
5969734	-0.512075689322364	-4.58293907164513	4.61145877635336	96.3755118455704
5091109	-3.52846213959631	-5.07526352885964	6.18128991052332	124.808084062701
4341796	3.41721593974838	-7.85570810935811	8.56676804158401	66.4910645755779
3702781	11.2158537166143	-3.29095069825379	11.6887010010022	16.3527196758934
3157797	72.9432265839441	-60.4205076635673	94.7172215111899	39.6357133881492
2693047	21.7601655361259	-28.4538204755834	35.8207300849149	52.5929132827588
2296687	8.31457173470888	-30.170233216493	31.2949688523443	74.5924013198301
1958656	123.538777760203	12.0737744725413	124.127376676133	-5.58194219736349
1670375	19.6376434522909	-40.5305912051958	45.0373829590708	64.1491568837602
1424531	18.0810639771905	-26.742381358403	32.2812613642267	55.9365803835832
1214875	-10.2361703602004	-25.4224524826508	27.4058437906167	111.931831645388
1036062	19.5512444673648	-28.6637682431367	34.6967256397331	55.7025271242723
883578.1	-0.429821770537413	-36.7802691424704	36.7827805494227	90.6695397554215
753531.2	-14.365281625667	-46.1288046166638	48.3138482378197	107.297462519472
642624.9	-21.0411057013714	-61.0413486342764	64.5660465897329	109.01920069384
548046.8	-24.9383437065976	-75.556237760753	79.5654827886303	108.2661622637
467390.6	-25.9596027829627	-72.3605519042926	76.8762020949463	109.735627120872
398593.7	-29.4335188169093	-83.3723736779015	88.4154099839671	109.444908335623
339937.5	-33.4075387516731	-100.908287368447	106.294619360895	108.318072239939
289906.2	-38.6335429308831	-122.028495000312	127.998063389387	107.567497528317
247234.4	-53.0306973737864	-129.846201991326	140.257944643155	112.215674937096
210843.7	-64.1712655045788	-148.908104772332	162.146769882557	113.313404776787
179812.5	-76.6922394280205	-167.137682523914	183.893187769285	114.648339143662
153343.8	-98.8034287542964	-187.280632266676	211.745490520605	117.814733102673
130781.2	-115.248849712773	-203.44972610783	233.824909736898	119.530397924413
111531.3	-146.951991086778	-227.814325999659	271.098238310483	122.824103105502
95109.37	-177.208888992931	-244.875373319623	302.269645840487	125.892120211089
81109.37	-206.653734804141	-256.224316887514	329.1757382812	128.887371676694
69171.88	-242.011727414021	-264.771699579678	358.711205713216	132.4285373295
59000	-276.959645473134	-273.784838328838	389.441629669135	135.33028208294
50312.5	-303.576896006824	-273.782690954299	408.798108673848	137.954085009963
42906.25	-379.913310667368	-298.468549068417	483.133106302234	141.846015424948
36593.75	-465.321508785064	-213.538959665782	511.979485754218	155.349312853252
31203.13	-486.617907071269	-197.47424956838	525.160039154748	157.912210366652
26609.38	-511.255269487536	-187.620857770693	544.594837332657	159.847833685943
22703.13	-533.216445779886	-177.228317705365	561.898260049636	161.614434455669
19359.37	-544.933433341702	-162.716979073066	568.708415668557	163.374388914973
16500	-563.77186173228	-148.327222145219	582.95769735925	165.259649244071
14112.02	-576.460385776559	-133.319455958864	591.676139206937	166.978006967448
12011.13	-588.276151096304	-125.468201262164	601.507356128456	167.96028581142
10236.38	-595.126563640152	-115.005629644667	606.136883550327	169.062656609252
8750.684	-605.268282412238	-105.103697135358	614.326037903149	170.148927293041
7449.463	-608.573593314733	-92.2773642434499	615.529796542559	171.377979059376
6363.206	-616.722387317368	-93.2675508963855	623.734991056814	171.400267117606
5414.761	-617.931800624887	-84.469849085818	623.678495402957	172.216044426314
4620.567	-622.624664992204	-82.0473446939891	628.007356826326	172.49301222448
3941.215	-622.001223800632	-82.5436408986245	627.45436093973	172.440643882005
3361.769	-625.513922902793	-85.5923315957814	631.342787218832	172.208309496079
2867.244	-626.507119385	-82.5315537668352	631.91979554945	172.495475942999
2442.658	-629.995320743583	-84.0539560864948	635.577825047885	172.400479540566
2083.003	-634.865854729274	-87.0757411746986	640.809517877391	172.190261325533
1777.843	-632.858333955739	-92.0812512492837	639.522187018455	171.721524553336
1513.548	-646.440960494317	-96.6070636249002	653.619797854258	171.500362844416
1292.065	-641.618488298995	-110.060682133692	650.989737460446	170.266440936822
1101.762	-652.593174232974	-118.207163487991	663.212473160258	169.733074525335
939.101	-659.240451143065	-138.956438632857	673.726104779115	168.097280020236
801.2801	-654.999140052302	-151.052794359478	672.191059262961	167.013759533864
684.3433	-681.464371673913	-156.255618429201	699.149131553214	167.085665737153
582.9476	-676.822866431294	-180.872017076838	700.573964036431	165.038086464694
497.0677	12.7353472542468	-799.322615067123	799.424062702287	89.0872022126087
423.5089	-697.443603665412	-233.185909874143	735.393261362673	161.512963630152
361.5036	-745.295154034649	-275.929307173352	794.733822851838	159.684025052315
308.1262	-736.10837159682	-317.83628727281	801.795136080462	156.64631741409
262.7298	-737.94393652305	-333.48558238147	809.798670724671	155.681227303972
224.2111	-737.038194436382	-369.137536676562	824.310512514357	153.396500800108
191.2854	-748.248934083828	-398.250821120653	847.632104088124	151.976138425979
163.1722	-815.383167955896	-500.584169589628	956.783267741201	148.453192831058
139.1537	-860.706019239483	-524.856658791796	1008.1117814177	148.625252056936
118.6706	-892.097459809432	-567.801711009422	1057.46709680428	147.524084470474
101.1982	-988.841786997901	-666.73291627568	1192.61932793271	146.009928905281
86.24196	-788.160470198478	-878.725479867975	1180.40475928924	131.890071593636
73.61024	-1106.05651192335	-644.482645667128	1280.12455961682	149.771282238756
62.69291	5677.61327818427	-2596.82359552585	6243.29923381013	24.5783825321111
53.57697	2448.78250565459	-1393.91638048793	2817.71869351654	29.649758027529
45.65746	-1457.53024247159	-508.951093367462	1543.83471367865	160.751445424643
38.96512	1143.552539581	-1792.37732856505	2126.10651161604	57.4617653863317
33.18414	965.150574588988	-1560.77740115922	1835.0862997687	58.2682607787579
28.30617	-1014.69255922443	-2301.26222854352	2515.03654730235	113.794059071122
24.17237	-1671.57807341611	-1923.58054484227	2548.39858892231	130.990413263722
20.61345	453.904950770151	-2358.25783744611	2401.54319807278	79.1052460973986
17.55618	-1463.39289134625	-1797.30176026239	2317.71706036026	129.153052206296
14.98558	-1843.94045501265	-3058.51003849601	3571.35829303266	121.085290788839
12.76553	1606.5147708196	-5098.65012532386	5345.75745889454	72.5110748332379
10.8809	-1705.56163922568	-3834.62709847573	4196.820878899	113.978494185375
9.278505	-3465.40588808744	-3988.34027373851	5283.5495747003	130.986860925392
7.923394	-2699.28895663715	-3744.2124920978	4615.76516488919	125.788701329068
6.75822	-3147.57160266933	-5088.99308585497	5983.73274986526	121.7370302808
5.761429	8603.69301092437	-11161.9570933171	14093.0060519139	52.3747825205745
4.919708	-2994.2040398279	-7996.5086034859	8538.70058485164	110.527855864199
4.191257	7800.66675338136	-8859.02163939027	11803.9258810149	48.6349953185084
3.564097	-2917.85223639907	-7140.7593143807	7713.90337373847	112.225873585849
3.051758	-4621.67830017121	-13257.842918202	14040.310151631	109.218532710766
2.604164	-3861.75411475361	-10506.3733543762	11193.6154080959	110.181560172822
2.214424	-6056.51761857921	-12140.7014805716	13567.5361840134	116.512801104797
1.892567	-3307.13752848279	-15399.8309148077	15750.9349194569	102.12027317845
1.607507	-4953.13922371173	-15038.7611615913	15833.4432592806	108.22972214793
1.376413	-4635.6313538401	-22349.5946959866	22825.2811838886	101.71782762315
1.17375	-6655.94197191027	-21053.2602903319	22080.3381402075	107.544235441835
1.001604	-10327.6207937385	-23438.1087416784	25612.58855809	113.779907013582
