EC-Lab ASCII FILE
freq/Hz	Re(Z)/Ohm	-Im(Z)/Ohm	|Z|/Ohm	Phase(Z)/deg
6999984	24.0253911806034	82.9857884967042	86.3936369983388	-73.8536295387885
5969734	21.4056061423064	81.7145112635855	84.4716598947019	-75.3208598605595
5091109	19.6656940647586	85.6186582767363	87.8481312729942	-77.0641412480245
4341796	20.4031367167386	92.8804932583237	95.0950788200496	-77.6105710972408
3702781	24.9271826839816	102.167396600072	105.164354058764	-76.288642872315
3157797	30.1998211771987	112.579394559739	116.559638291186	-74.9837314939045
2693047	36.4419580582068	124.892179646551	130.100241521615	-73.73342299337
2296687	44.69539866224	140.203568342528	147.155425443829	-72.3182745351764
1958656	55.9911931467745	156.848929552486	166.543088754113	-70.3546908754836
1670375	70.3627699431242	175.097029819372	188.705827269947	-68.1072639240829
1424531	88.542019591572	194.020992112099	213.269394460428	-65.4702829677728
1214875	109.849158988692	213.038179964742	239.691684989723	-62.7229503401205
1036062	135.123823230676	231.695733171039	268.218866551442	-59.7494712707301
883578.1	164.021706764427	249.243284882415	298.371136923283	-56.6519353795379
753531.2	196.615944958193	264.572416712919	329.630692589628	-53.3822600483767
642624.9	232.418918347654	276.974366218585	361.570675177178	-49.9988067582583
548046.8	270.447274680222	285.818835946245	393.489689018182	-46.5828782203119
467390.6	309.615513992561	290.675010682975	424.680736954745	-43.192790078926
398593.7	348.431484173874	291.387895482695	454.215152540559	-39.9052212758228
339937.5	386.336309931241	287.757823353406	481.726384239412	-36.6801277907007
289906.2	421.895393343954	281.64133648195	507.264788192704	-33.7255677877054
247234.4	495.840115251658	249.36202162893	555.012466277691	-26.6981945938023
210843.7	520.114963247541	237.515408568247	571.780678495988	-24.5442571658331
179812.5	542.273933950061	225.958533707625	587.467682853257	-22.6208607658908
153343.8	561.731070392813	215.880237207338	601.78573617306	-21.0223887315671
130781.2	579.204042370524	207.042551903405	615.096692396431	-19.6699619632064
111531.3	595.492985126222	199.383387029376	627.985374318419	-18.5116131887904
95109.37	610.199600085534	193.382813796524	640.109728575037	-17.584309645261
81109.37	624.270215446071	189.526415442248	652.405980999156	-16.8881200875534
69171.88	637.158523109089	187.442043256053	664.15773966021	-16.3930559046706
59000	650.040171909902	187.305137239366	676.487575298255	-16.0740158156079
50312.5	664.229913735797	190.039464885224	690.880869987965	-15.9660877557391
42906.25	675.393325334526	189.873803609986	701.575516394175	-15.7023037164389
36593.75	687.312256646702	196.036823388066	714.722725440339	-15.9193343996565
31203.13	700.145969811231	203.788728261937	729.201086676047	-16.2284852371752
26609.38	713.171901155194	213.454394472577	744.430614037982	-16.662592440234
22703.13	726.950298035924	225.503070584119	761.123098228785	-17.2341121112991
19359.37	741.607869100782	239.8043866713	779.415406172473	-17.9189972117087
16500	756.752571077529	256.24811031147	798.96029179844	-18.7068943941049
14112.02	773.045012586595	275.603103585648	820.704369545484	-19.6219767478642
12011.13	790.083511265925	297.774821707566	844.335122577088	-20.6509401929838
10236.38	808.014037486505	323.688068469809	870.437045652906	-21.8308952058541
8750.684	827.176714132628	351.664518695494	898.826596242336	-23.032204355749
7449.463	847.640093687624	385.02844366834	930.989060548204	-24.4292473476165
6363.206	869.010032822042	422.254643736742	966.166352810224	-25.9152592259119
5414.761	892.087580852915	465.511247764682	1006.24101173995	-27.5565598554216
4620.567	915.881363768908	514.002166135547	1050.25563521041	-29.3015944937398
3941.215	941.590781000256	569.833682757684	1100.59239724335	-31.1815664223892
3361.769	968.847624269068	633.393802575878	1157.52037916978	-33.1750527494099
2867.244	998.560677134569	706.563036201082	1223.25579910546	-35.282517570616
2442.658	1031.42817366302	791.512535704332	1300.12929034114	-37.5024425478504
2083.003	1066.39249334302	887.452824179869	1387.3591694306	-39.7672587683332
1777.843	1103.83495856526	997.662106194597	1487.87811795436	-42.1077340656631
1513.548	1147.85532680074	1125.23941687916	1607.4002602225	-44.4299606572181
1292.065	1193.55415416071	1269.79407490071	1742.68428338791	-46.7727220561506
1101.762	1246.88898895754	1436.05222679709	1901.83546840215	-49.0330176396299
939.101	1307.54154491275	1627.394853909	2087.60123160586	-51.2196251210774
801.2801	1373.72005945978	1842.83073070609	2298.50645067551	-53.2976742890815
684.3433	1451.3793027347	2092.47892018575	2546.56040804619	-55.2541590016927
582.9476	1541.01723630902	2379.87123793748	2835.22860308716	-57.0760845761174
497.0677	1646.80853227033	2701.26982276562	3163.67460358087	-58.6317452039889
423.5089	1764.3861107484	3074.96219267778	3545.20109926075	-60.1531773331793
361.5036	1903.76035074107	3493.82843676918	3978.83659109427	-61.4143720318212
308.1262	2065.27953169386	3974.30256678331	4478.89053632415	-62.540978944387
262.7298	2251.89549521623	4518.53758031095	5048.58546387574	-63.5097932801737
224.2111	2470.46989159291	5133.01151246929	5696.58043675409	-64.2989280514073
191.2854	2723.87971000298	5827.22370149381	6432.42230748395	-64.9467141345823
163.1722	3021.22716031679	6611.74417049921	7269.31733592407	-65.4420361484729
139.1537	3364.96177930941	7496.60759046594	8217.18279835886	-65.8263762374466
118.6706	3766.96503670985	8493.76785275118	9291.61546364376	-66.0828321465472
101.1982	4233.98252487777	9604.77048240148	10496.5815407008	-66.211117396877
86.24196	4781.23486792479	10862.7458936006	11868.4226083839	-66.2433176249633
73.61024	5409.81925188359	12266.4010111438	13406.3693110491	-66.2012052270212
62.69291	6065.79125657414	13883.9104964645	15151.131780899	-66.3997923988135
53.57697	6935.14604198266	15653.6963028751	17121.1698947903	-66.1049483174392
45.65746	7936.93206605803	17448.0562929754	19168.4521812289	-65.5397254525427
38.96512	9144.1210608172	19589.4755586572	21618.5684687518	-64.9774246724013
33.18414	10294.7548059981	22015.6965190341	24303.762460447	-64.9387500212299
28.30617	11709.2597807003	24498.5562821004	27153.0113342731	-64.4541996138878
24.17237	13342.8808702159	27490.5377963942	30557.5217949976	-64.1097946832347
20.61345	15301.0194172977	30658.4512573617	34264.5856345666	-63.4771346858512
17.55618	17706.3130786023	34121.7588099658	38442.2677156663	-62.5744969754021
14.98558	20230.2859667044	38275.0246466899	43292.5164664675	-62.1412835865037
12.76553	22688.7861140136	42317.4070505394	48016.0801691319	-61.8016915013297
10.8809	26360.1961168837	47062.394225788	53941.9029102983	-60.7463032426987
9.278505	29460.3217522022	51751.7801368162	59549.6205283681	-60.3487851244369
7.923394	33532.2640210102	57218.4173126972	66320.132766338	-59.6280042181623
6.75822	38201.5819836898	63285.5646541331	73921.7394252126	-58.8832163802718
5.761429	43250.5508696395	69758.3923495221	82078.2763812516	-58.2008809420505
4.919708	48723.0853382865	76310.016501957	90538.1558427765	-57.4422275255178
4.191257	54980.0380196462	83737.8289812896	100173.991550409	-56.7121589733841
3.564097	62041.681244829	91901.202960283	110882.826971683	-55.9770655813872
3.051758	69383.2568604889	100362.661552695	122011.065754338	-55.3429101641584
2.604164	77772.7786604215	109400.164521945	134227.423047571	-54.5909087876272
2.214424	86577.623468512	119392.277344791	147479.49272706	-54.0521565728657
1.892567	96713.3130849117	129877.158929599	161930.668310498	-53.3267060605608
1.607507	107527.209147263	141442.361226011	177673.977431104	-52.7572032009346
1.376413	119207.341251385	152749.012175224	193759.260239946	-52.0310536801196
1.17375	131619.764289266	165927.24693109	211791.438981118	-51.5772195401745
1.001604	145137.902573465	179845.521639941	231104.78666044	-51.0959750993102
