EC-Lab ASCII FILE
freq/Hz	Re(Z)/Ohm	-Im(Z)/Ohm	|Z|/Ohm	Phase(Z)/deg
6999984	3.70717437540821	3.08224504671567	4.82113849393342	-39.741051678784
5969734	6.48533103710564	6.5046918570311	9.18534347837752	-45.085395726958
5091109	15.3616912818172	4.19775180256809	15.9249075109974	-15.2835804301793
4341796	4.40482262749912	-9.5112273148746	10.4816939191595	65.1502860391922
3702781	4.73200740430664	-8.55106288855731	9.77305328945232	61.0406316620574
3157797	1.91615128232899	-8.335902927339	8.55329839014107	77.0544582612868
2693047	-0.674953613229117	-9.20916836361642	9.23386941262679	94.1917978009883
2296687	2.64778839948259	-12.1545501613122	12.4396090385626	77.7104949367116
1958656	-0.471225756524143	-11.6142939974719	11.6238495677346	92.3233824310667
1670375	0.694492134601582	-14.1136901645763	14.1307667657024	87.1829196847119
1424531	18.0103055329457	3.34598346380081	18.3184800332911	-10.5245127697314
1214875	-3.11763744372743	-21.6625751815312	21.8857676750445	98.1896681122931
1036062	-10.6496931166712	-16.3308237095528	19.4964552293941	123.109264200138
883578.1	22.2074174701903	24.786327347929	33.2795945602408	-48.1411114286836
753531.2	7.14176034754892	-9.30340537043026	11.7285162040376	52.4883484851474
642624.9	9.47418148635351	-8.23054565548903	12.5499799451415	40.9819636714783
548046.8	6.81361927903334	-8.84333539674582	11.1637802118705	52.3864422117054
467390.6	11.4967637315447	-6.64706002575014	13.2800219610092	30.035123710956
398593.7	9.04760797806636	4.52792582383467	10.1173772486213	-26.5859292434244
339937.5	10.3636551869063	-0.300708385842446	10.3680168965143	1.66200904309912
289906.2	12.0530897249961	-0.836337610764464	12.0820707048911	3.96926711225631
247234.4	0.144784564812773	-7.72245174776163	7.72380887688935	88.9259145932794
210843.7	1.46516976654131	-4.87644739106086	5.09180337430374	73.2766610390917
179812.5	10.1039395035095	-2.07467172563777	10.3147397572475	11.6034324050084
153343.8	5.61374187933426	3.81230791012073	6.78585215646204	-34.180536384085
130781.2	8.40328261759215	-0.388802350782491	8.41227234575179	2.64906692804059
111531.3	6.72932569847488	4.40415851381936	8.04241484698483	-33.2036433433869
95109.37	11.5832402052037	5.38265736134831	12.7728013341289	-24.923990674134
81109.37	18.1220514874317	-11.2182474806736	21.3133250960699	31.7591021503031
69171.88	19.4280811432824	-7.69494389306316	20.8964709562968	21.6071952939012
59000	16.6236160564562	-14.9148137965906	22.3337475892301	41.898656036642
50312.5	-4.77136438883375	-37.996573969214	38.2949807615695	97.1573700528059
42906.25	34.9577878680754	-180.643446093853	183.994841094233	79.0476065432084
36593.75	141.09725364749	20.1317633056406	142.526218221976	-8.12015840782232
31203.13	198.694752019688	-241.004839907775	312.350664060664	50.4963633075499
26609.38	356.709154484074	-135.04209510933	381.415506166517	20.7355431410128
22703.13	20.7733084113601	-516.029459689942	516.447416113438	87.6947428831023
19359.37	466.444306645248	-733.573123090105	869.309966652825	57.5496571121048
16500	-302.704905909484	-1059.23052304833	1101.63494907292	105.948777165514
14112.02	-397.164065568334	-1325.33491655779	1383.56493740843	106.681933960163
12011.13	-497.391398127782	-1125.47382146737	1230.48345203821	113.84253130059
10236.38	-894.128220590176	-2089.73886487787	2272.98785703682	113.164435750053
8750.684	-257.670647669634	-1949.86489927385	1966.81653645954	97.527901858917
7449.463	-418.952726359672	-2232.07651299601	2271.05414880241	100.63052561533
6363.206	473.836506717018	-2590.74729507746	2633.72219150938	79.6354039452331
5414.761	-479.569771702775	-3684.25248308675	3715.33356847834	97.416346976205
4620.567	2.5174603932406	3.50988853282518	4.31936619707021	-54.3500946263337
3941.215	34.3440979048221	-2.36051770414061	34.4251231621263	3.93183520654262
3361.769	14.8414258439106	7.37927907702559	16.5747301871531	-26.4369430279565
2867.244	8.48514320967279	-4.72185314108939	9.71048672182152	29.0952723917132
2442.658	0.00526051293000655	-3.08837262367151	3.08837710385891	89.9024065635209
2083.003	3.4852923546753	3.59960603195459	5.0104317561306	-45.9243778263681
1777.843	-0.791531790653875	5.00436756925603	5.06657846518113	-98.9879129124694
1513.548	4.77600958864605	2.87245100649875	5.57326137692955	-31.0241004315534
1292.065	2.79921248135512	3.35685824388236	4.37082232369325	-50.1759939564025
1101.762	2.96353172264316	2.29641991134977	3.74914185919338	-37.7718530326988
939.101	-6.12422048416309	33.9997074162173	34.5468693361211	-100.210948621956
801.2801	5.37370729712486	1.26994679146364	5.52172934580479	-13.2965284191979
684.3433	10.7723879047451	-1.69955111709464	10.9056322682326	8.96560920073941
582.9476	38.8865566038751	-11.0347041259712	40.4218873836206	15.8421684438082
497.0677	87.1263614247762	-456.044130645886	464.29220535314	79.1840850900086
423.5089	47.3812035046423	-66.495070169726	81.6490832920071	54.5281469907485
361.5036	14.3677746566855	8.01222244472969	16.4507950290897	-29.1463229312593
308.1262	-8599.84626523737	-41439.6083731109	42322.5530645602	101.724015567337
262.7298	35.1124434535371	-6.74294887424873	35.754035363838	10.8706652216596
224.2111	479.43846311712	-121.325379744621	494.551400449218	14.2009881354355
191.2854	3646.63003948608	-25.7459932194752	3646.72092448122	0.404513818348754
163.1722	6440.42383894276	-2113.98352069288	6778.49434247631	18.1717346247188
139.1537	-48033.1002096764	-137667.829338652	145806.755503883	109.234174458573
118.6706	-135128.387439562	-176711.830582759	222456.18031407	127.404499607116
101.1982	-14605.9876994691	-198166.299789522	198703.843065371	94.2154036621477
86.24196	215905.217412303	136911.768067771	255655.813822602	-32.3799706762628
73.61024	90593.4370161901	325711.351558514	338075.517250925	-74.4566103223842
62.69291	96517.4482245491	333064.173368842	346767.013127905	-73.8391337065717
53.57697	49998.1275090563	327974.765049966	331763.860696117	-81.3322757512926
45.65746	-44574.8002760977	294660.687854766	298013.143647554	-98.6021977247873
38.96512	54890.4439676075	317804.400091721	322509.841022906	-80.2006841059092
33.18414	-73686.5272600973	652221.838297381	656371.107416885	-96.4458137670329
28.30617	563457.513860038	748798.458894134	937114.455105439	-53.0391901093862
24.17237	47036.1108491347	437152.050775738	439675.233804732	-83.8587904447014
20.61345	-230061.67592354	350668.537872808	419400.522391903	-123.267515143154
17.55618	296284.41225647	287970.509268716	413172.442394995	-44.1847404504801
14.98558	938121.414522034	-79656.9859119557	941497.224525595	4.85340974507859
12.76553	258148.704395124	-514661.394972436	575775.220946382	63.3621420563684
10.8809	658221.925040219	-186289.296166001	684075.876251806	15.8025197643852
9.278505	1090561.63492194	-627178.470832299	1258045.11597922	29.9030683983343
7.923394	-603923.064155087	-1348385.15927409	1477452.40368991	114.126947550093
6.75822	10136.7702866243	-1059487.27544652	1059535.76671339	89.45183255343
5.761429	5434391.6009655	-938642.313286132	5514858.24522584	9.79958937859799
4.919708	2509403.88200588	-866625.188613462	2654834.65785829	19.0524051333026
4.191257	2019965.03722809	-153971.014672983	2025824.72711321	4.35891851999093
3.564097	2284250.57015842	435598.132023791	2325413.1675665	-10.7964671871902
3.051758	3809278.48206867	-2195417.01781826	4396641.72250565	29.9563133662358
2.604164	-773814.356677852	-5647218.94254438	5699988.63539506	97.8024059385642
2.214424	16348439.6478589	-4463725.20779657	16946867.6058558	15.2716228009949
1.892567	9403323.3920736	-3178459.9556789	9925980.98455628	18.6760005097914
1.607507	6418851.96628864	6488608.90866944	9127086.39899897	-45.3096456783943
1.376413	14672248.0651136	19299003.6686715	24243069.2340642	-52.7557478881349
1.17375	26411294.9856735	-5742604.19755982	27028392.5861323	12.2668831543021
1.001604	219249.89507108	-26758970.3683887	26759868.5664335	89.530556954481
