EC-Lab ASCII FILE
freq/Hz	Re(Z)/Ohm	-Im(Z)/Ohm	|Z|/Ohm	Phase(Z)/deg
6999984	47.0636105717632	40.6575723038781	62.1934210804942	-40.823260091805
5969734	32.0497246506743	62.2089594046474	69.9795647342359	-62.7427173840525
5091109	102.583895143543	64.7719979163265	121.32133883573	-32.2685246555319
4341796	105.299444022941	37.1567163300778	111.662860790749	-19.4362639377285
3702781	95.8664531012229	29.6606833275385	100.350052145804	-17.1918507443302
3157797	77.7862668709287	153.948520575875	172.484347989074	-63.1936924646
2693047	118.472187404646	100.566736589033	155.400539563444	-40.3267176778108
2296687	100.284236113075	96.4128819468442	139.112802495238	-43.8724612633999
1958656	56.8857891236589	173.168271916239	182.272442795607	-71.8146446332564
1670375	147.24325939842	209.794385215797	256.308918117073	-54.9370726987114
1424531	255.202858254385	71.4812663075548	265.02465978497	-15.647339875152
1214875	585.052631312049	654.820561425092	878.109645243819	-48.2206494298037
1036062	81.1486378722836	1076.69096917809	1079.74466636247	-85.6898489663805
883578.1	436.208071450441	1204.43642157593	1280.99358906169	-70.0912448812824
753531.2	777.897512459188	1534.183720164	1720.12913093943	-63.1130200070456
642624.9	597.499033977619	1403.64262262153	1525.52210985093	-66.9416385856688
548046.8	649.872185823144	1325.10361227864	1475.88395247745	-63.8752257619081
467390.6	474.253530934322	1419.4819088636	1496.61127257371	-71.5253582424949
398593.7	784.701532142827	1479.08960127224	1674.35436605844	-62.0527043113765
339937.5	904.248787238989	1592.55223931857	1831.36247209059	-60.4121542565784
289906.2	1002.37856399774	1717.80717875374	1988.87513156056	-59.7354911005289
247234.4	1081.52023155812	1861.81243262653	2153.14457144713	-59.847848124154
210843.7	1150.90276874261	2037.39665193148	2339.99194451626	-60.5383768588457
179812.5	1205.53780795422	2246.05028352352	2549.12990695318	-61.7759084005488
153343.8	1265.2424460428	2508.2679223931	2809.31422553166	-63.2323098199918
130781.2	1309.17878633086	2822.76879818518	3111.58685923863	-65.1184868815625
111531.3	1354.76248228404	3193.22191431496	3468.72420025947	-67.0103362253049
95109.37	1399.24540749356	3671.39272020878	3928.99633702984	-69.137098265051
81109.37	2713.78728735372	3234.97488915169	4222.52341313161	-50.0070573505082
69171.88	1503.99004537449	4807.54197275215	5037.30541821312	-72.6282447023422
59000	6490.9651884572	9067.73108645435	11151.5190056787	-54.4037292055359
50312.5	7395.31158703675	10147.6226971794	12556.4676511219	-53.9164515190889
42906.25	7875.24785937698	10788.3422008621	13356.940379051	-53.8713941180798
36593.75	7970.40103141978	11836.0200696329	14269.5011717442	-56.0435917109798
31203.13	10406.3014227039	10467.2426718612	14759.8874810007	-45.1672771254602
26609.38	8976.67989644122	13281.0360801995	16030.1809511538	-55.9451575617763
22703.13	9207.52377863689	15538.9274437185	18062.0253635995	-59.3513228988937
19359.37	9324.12404542885	17905.3643488969	20187.6536943076	-62.4919910529033
16500	10052.1974869081	20250.3050479757	22607.997011055	-63.6003206118043
14112.02	11366.4277187875	19125.0202723533	22247.7432452	-59.2760362446135
12011.13	9463.89178246105	26176.765996239	27835.019771719	-70.1231586304712
10236.38	15088.1517523326	18450.5173370511	23834.3011919007	-50.7249677382292
8750.684	17.0431984103514	21.4486032364705	27.3954958496855	-51.5291197332732
7449.463	13.7423445106945	-10.0668097870035	17.0350430565445	36.2242481914269
6363.206	25.5967435199105	-12.3099250324623	28.4029493737697	25.6837212513216
5414.761	15.3911045910806	-4.20122947400386	15.9541978684865	15.2677839837675
4620.567	14.9347020079692	20.0713451784852	25.0180778906122	-53.3477737186877
3941.215	5.75122442738818	1.38770462870713	5.91627471900365	-13.5655206448559
3361.769	19.365179541796	28.1069736835649	34.1322742918576	-55.4338844028693
2867.244	24.2633281076177	-10.45074826709	26.4183124025741	23.3026060575831
2442.658	539.09962909484	482.905131885774	723.758092522502	-41.8527850355638
2083.003	0.000216935820182102	-0.000704161009232151	0.000736820111696826	72.877137568547
1777.843	0.000113538140686718	-0.000353808925120574	0.000371579957594019	72.2084385258498
1513.548	0.00040174242335124	0.00013148217268364	0.000422710937229849	-18.1222253416416
1292.065	-3.78431124998029E-05	0.000365452327219696	0.000367406456984584	-95.9119889893095
1101.762	0.000348437362921132	-0.000220404046305348	0.000412294238993468	32.3153983327515
939.101	-1.34246930258991E-05	-0.000360540916991524	0.00036079076375086	92.1324155979496
801.2801	0.00201728173719409	-0.000877299600828282	0.00219979094389223	23.503834564811
684.3433	-7.14705160367235E-05	-0.0010337893946409	0.00103625698894365	93.9548224569222
582.9476	0.00047249561587717	-0.000166281686219499	0.000500900894584094	19.3881011054698
497.0677	0.000559986362487839	0.000479876540097324	0.000737472860455312	-40.5947014977494
423.5089	0.00121853404770657	0.000695401855249035	0.0014029999877776	-29.7128521399288
361.5036	0.0014251670189959	-0.000216935881131168	0.00144158322983997	8.65500305042104
308.1262	-0.000227548589789874	-0.0008264554406285	0.000857208817068402	105.39386754093
262.7298	0.000388983323403097	-0.00128298962435618	0.00134066043504362	73.1334788860885
224.2111	0.000446517495086986	0.000901874719197161	0.00100635773090175	-63.660022814057
191.2854	0.00130876105589917	-0.000100746004668739	0.00131263294903603	4.40184222617095
163.1722	0.00131958594317631	0.000814308584963032	0.00155061456621979	-31.6784869885282
139.1537	0.00142957823491851	-0.000326946869941904	0.00146648838574246	12.8820908572459
118.6706	0.00296084551582466	-0.00210087351813939	0.0036304649437501	35.3576781741813
101.1982	0.00141376123812686	0.0015796776514547	0.00211992979151089	-48.1724694088111
86.24196	0.00210039712565697	0.00139490922022845	0.00252139640242196	-33.5888084915857
73.61024	0.00308306918088672	0.000667145772692023	0.00315442531313619	-12.2099884452457
62.69291	0.00236301139973777	0.00332396789140977	0.00407830668518367	-54.5909488946728
53.57697	0.00178491198184652	0.00262555108324027	0.00317481169105247	-55.7912038022247
45.65746	-0.00558282294207826	-0.00461686994578102	0.00724454278052463	140.410011303011
38.96512	0.00577317344575958	6.74984584773919E-05	0.00577356801958029	-0.669856990401143
33.18414	0.00412135418302841	-0.0039194594990351	0.0056875058739787	43.5616774961651
28.30617	0.00666675422159083	0.00125560545825297	0.00678396321613655	-10.6660505338625
24.17237	0.00922913945024161	0.00957145595921016	0.0132962319538697	-46.0431118702531
20.61345	0.00787613656315456	-0.00703519078107982	0.010560655116405	41.7721412258991
17.55618	0.0104384502006395	-0.00447863403427926	0.0113586709347632	23.2218304676255
14.98558	0.0173517647457975	0.00262996890499355	0.0175499423427752	-8.61859731211843
12.76553	0.0122453883266633	0.00337615398014337	0.0127022813292896	-15.4139684356172
10.8809	0.0115039782271807	0.013628627459302	0.0178348255241224	-49.8321562539666
9.278505	0.0183997669880818	0.00243544036164932	0.0185602477076912	-7.5399870740508
7.923394	0.022636997258574	-0.0167178250889715	0.0281410611134358	36.4465271680479
6.75822	0.0454467105779807	-0.0284598138646419	0.053622425416693	32.0557796966218
5.761429	0.0387216184647575	-0.0278961927645587	0.0477238023138105	35.7700874655385
4.919708	0.0322106491932493	-0.0487512283338082	0.0584312261167407	56.5466773029944
4.191257	0.0379829865970402	-0.0374616585630377	0.0533486938277269	44.6040882607363
3.564097	0.0901955403813293	0.0361774947894496	0.0971804848409425	-21.8557558445849
3.051758	0.100486265209293	0.0110737154502321	0.101094592682226	-6.2886930861087
2.604164	0.147820337726887	0.0504080532497213	0.156178820837262	-18.8298339482061
2.214424	0.0655489606542417	0.0416525115474194	0.0776633630552993	-32.4335594188413
1.892567	0.174245784333871	0.00272952381452577	0.174267161732725	-0.89745301536096
1.607507	0.0771809788110731	0.0696464086815574	0.103959250345863	-42.0623959153344
1.376413	0.0950640163553429	-0.00585863515835203	0.0952443741725861	3.52658215804659
1.17375	0.101592405355805	0.0605077725590365	0.118246384156279	-30.7777514979589
1.001604	0.0904716513209776	-0.0529774930995402	0.104841473033606	30.3519636420854
