EC-Lab ASCII FILE
freq/Hz	Re(Z)/Ohm	-Im(Z)/Ohm	|Z|/Ohm	Phase(Z)/deg
6999984	21.6787644846599	99.3767851478979	101.713884282888	-77.6938791606528
5969734	19.8300684251143	96.3476656484943	98.3671911241689	-78.3699120631277
5091109	16.7251231698729	100.829043922052	102.206779830315	-80.5817583354507
4341796	14.9006715381791	110.364857222327	111.366205475419	-82.3108303695965
3702781	15.9092212031917	122.197652696814	123.228931845988	-82.58224047715
3157797	15.5758845207786	137.466803327338	138.346413743334	-83.5355849524681
2693047	15.4665267018813	156.470336475438	157.232883472119	-84.3548573037257
2296687	15.6573945838536	180.587350390477	181.264848015845	-85.0446984890632
1958656	17.3531376126756	208.036309668597	208.758802270785	-85.2317692091734
1670375	19.019650467029	241.184962653111	241.933737444513	-85.4910326114701
1424531	21.5858682023286	279.58729620514	280.419339392541	-85.5851695772101
1214875	24.717782581544	324.101000320115	325.042192929237	-85.6387411310549
1036062	27.0672910199888	374.588699378131	375.565349766137	-85.8670648124145
883578.1	32.191532298954	438.536380843047	439.716331371343	-85.8016330322106
753531.2	37.2973467014552	510.904361888921	512.2639544884	-85.8246659355748
642624.9	84.6287619792951	671.192322412987	676.506586087886	-82.8136581306033
548046.8	105.891868296634	773.399650008727	780.61521020601	-82.203687261907
467390.6	129.714816477785	886.747782828023	896.185005433744	-81.6777120059769
398593.7	155.986686539056	1018.14038699528	1030.02023961101	-81.2895903955553
339937.5	185.201995454492	1170.420063187	1184.98223760147	-81.0083254139256
289906.2	215.604667469498	1344.73566900626	1361.91019973137	-80.8911555448213
247234.4	254.236959626839	1549.72697084735	1570.44264964118	-80.6834583440864
210843.7	297.108352987123	1780.73220545686	1805.34776731963	-80.5276711195904
179812.5	346.955536671536	2063.97817192337	2092.93670200586	-80.4577702685844
153343.8	408.297120939235	2387.63895919373	2422.29773942573	-80.296024283019
130781.2	486.332808389411	2763.05162138368	2805.52559477666	-80.0174522030264
111531.3	581.106757181826	3195.38223274099	3247.79196940925	-79.6929289078643
95109.37	715.101206644733	3709.96254029137	3778.25247781431	-79.0899481242686
81109.37	888.043330818162	4270.0938954258	4361.4587964537	-78.2517681657717
69171.88	1088.67739754702	4928.93998772496	5047.73888771239	-77.5447955423598
59000	2012.74567215149	6065.42275621044	6390.65711428176	-71.6421270411425
50312.5	2346.47020569927	6882.63771590804	7271.63147819485	-71.1744215929772
42906.25	3125.49192758539	7884.36418588502	8481.26749991225	-68.3758092426607
36593.75	3684.43127673172	8741.53121871904	9486.2743941338	-67.1452677860582
31203.13	4417.5704815761	9803.31839069415	10752.6731759602	-65.7427243993575
26609.38	5349.61337497957	10932.9119169744	12171.5621941508	-63.9269065550289
22703.13	6451.12190225057	12122.4663990236	13732.1216639365	-61.9797667840563
19359.37	7796.4703120727	13324.2039575748	15437.5956816495	-59.6665642777746
16500	9355.8688872825	14500.6295995023	17256.8983718971	-57.1697173389976
14112.02	11097.3691317666	15595.1525752886	19140.5429780145	-54.564690238922
12011.13	13092.9983408658	16570.8788975098	21119.2005764861	-51.6869982537215
10236.38	15216.7110432313	17380.8963303949	23100.7327204384	-48.7983455859002
8750.684	17379.9506998866	17959.3924425922	24992.0480000645	-45.9393664022887
7449.463	19642.3277013632	18376.4116264936	26898.2070367909	-43.0929178056567
6363.206	21856.8419909406	18617.4155287939	28711.1424849086	-40.4239887226901
5414.761	23920.0115110257	18743.345042707	30388.812646722	-38.0816914195717
4620.567	25943.6761224209	18879.2571979007	32085.8330589929	-36.0434456295954
3941.215	27725.8154246453	18787.0130090176	33491.3824552301	-34.1215675678101
3361.769	29475.2433267952	18917.3191339723	35023.6339118365	-32.6924962351948
2867.244	31051.6424860685	19088.4644560343	36449.6087272813	-31.5804080731577
2442.658	34551.7715492318	17716.7959312656	38829.2386644447	-27.1469752459944
2083.003	35674.5180581299	18241.43460432	40067.7073851689	-27.0820018320266
1777.843	36816.01798555	18963.9119126607	41413.1517195141	-27.2529724380936
1513.548	37997.5885841418	19970.4781493425	42925.9447854449	-27.7251698753727
1292.065	39174.0775983506	21163.0008048098	44525.0598960403	-28.3792355759823
1101.762	40478.0705511381	22648.36236668	46383.4292979224	-29.2279636874875
939.101	41702.664931889	24424.3472897899	48328.6768177411	-30.3565816819142
801.2801	43198.2121577535	26516.0966752982	50687.1671778966	-31.542598588257
684.3433	44789.3213027942	28894.7731985874	53300.9495315303	-32.8271298578947
582.9476	46452.5677812868	31750.4738244011	56266.6299110674	-34.3527273902556
497.0677	48269.6384807068	35000.275381848	59623.6301801838	-35.9458365396169
423.5089	50182.9552544335	38725.852115688	63387.8586178347	-37.6571296933798
361.5036	52514.5953412507	42921.6008896414	67823.6429778361	-39.2600593393496
308.1262	55014.0321390389	47657.6381770821	72785.9478801566	-40.9017782280497
262.7298	57765.2533783856	53056.7478211221	78433.6852839597	-42.567131625799
224.2111	60902.0335934609	59114.5705659715	84873.9662618536	-44.1467304303511
191.2854	64218.8737480278	66106.3014509834	92163.4788676807	-45.8297251986125
163.1722	68319.1601968125	73752.7083399798	100533.425473719	-47.1902134831506
139.1537	72845.0065738558	82452.7486194505	110022.046598159	-48.5401822625702
118.6706	77860.3703186731	92467.6239976108	120882.168883274	-49.9016674936718
101.1982	83699.111980379	103208.670535406	132881.793410497	-50.9589923496504
86.24196	90404.9762620635	115490.348981313	146666.562108647	-51.9464278137788
73.61024	97688.6274255427	128957.14941736	161780.760024602	-52.855058662765
62.69291	106380.739764523	144708.213263858	179603.253809237	-53.6789204059615
53.57697	119348.356168106	159310.287121692	199057.272418832	-53.1610410436766
45.65746	130579.921452286	178566.295359948	221217.173214607	-53.8231682604637
38.96512	143074.684222672	198488.179297268	244679.223854748	-54.2151000402229
33.18414	157821.838436068	221521.409410539	271991.668097705	-54.532214991094
28.30617	173472.180103619	245684.157120374	300754.554961103	-54.7749256426893
24.17237	192926.738929949	272962.164710936	334258.986353134	-54.7477387953104
20.61345	214724.909093319	302900.687781154	371289.123518896	-54.6673470870756
17.55618	238904.768890638	334665.578746233	411189.175679808	-54.478431442865
14.98558	264948.192958935	369148.471093502	454387.652410225	-54.331937593806
12.76553	295453.078851629	406640.972313851	502642.419784941	-53.9989746303216
10.8809	329835.993828589	447100.980969688	555599.739028872	-53.5830072710566
9.278505	367054.819296514	490131.926465502	612338.587473941	-53.1708328923954
7.923394	409368.562914876	536169.78398447	674581.839038781	-52.638068086593
6.75822	454672.798008119	585148.224564463	741030.227426301	-52.1520222594056
5.761429	505737.194172721	638687.747943067	814673.031922798	-51.6264824513998
4.919708	564039.529186459	694154.312256095	894422.047865891	-50.904194666124
4.191257	624103.805276721	751328.227815904	976729.06462021	-50.2846955092947
3.564097	694437.581560355	818412.698619158	1073332.61384553	-49.6848086977928
3.051758	763473.124959285	881352.437754181	1166050.31283832	-49.0991942649675
2.604164	842307.506701849	957252.012812024	1275073.86134253	-48.6547279849727
2.214424	932258.764096965	1030516.45379329	1389629.65022135	-47.8658682334807
1.892567	1020525.92709097	1116378.89705362	1512539.25887943	-47.5683369800472
1.607507	1120233.63597689	1209499.38515449	1648578.83095201	-47.1942642947622
1.376413	1224713.80492883	1300495.69782602	1786396.64241938	-46.7189385079217
1.17375	1342956.97644763	1406434.19830757	1944631.22333219	-46.3225949531399
1.001604	1464853.10178646	1521300.93193264	2111906.99021347	-46.0829438961706
