EC-Lab ASCII FILE
freq/Hz	Re(Z)/Ohm	-Im(Z)/Ohm	|Z|/Ohm	Phase(Z)/deg
6999984	24.8210905911559	5.11231726345185	25.3421057912826	-11.6382682389523
5969734	3.16344224934727	5.77314426243934	6.58305108136733	-61.2790966963908
5091109	8.27234469270475	9.17548615611129	12.3539966373603	-47.9631220896262
4341796	1.37003229359611	0.601504860208288	1.49626086707847	-23.7036020296613
3702781	11.5421809225911	-4.47351526005373	12.3787834310064	21.1853207397684
3157797	32.0518139091536	5.05410554313844	32.4478467345399	-8.96092813555319
2693047	7.82903052068109	-18.6743117551825	20.2490404321662	67.2545881333692
2296687	0.953416777788512	-21.4151313112693	21.436344199305	87.4508347497151
1958656	17.1253657218341	-23.8319913019582	29.3469242089044	54.2994566164
1670375	15.1390565963048	-19.3929048907229	24.6023534387819	52.0226483892651
1424531	20.5547946791398	-5.74524476720799	21.3426198423887	15.6161423232071
1214875	-9.27038931282818	26.7347263223487	28.2963903977571	-109.124223857688
1036062	-9.56853514534521	-20.6688388523173	22.7762543964272	114.84154051218
883578.1	23.2256087157147	-8.4373958993968	24.7106970718885	19.9650638755886
753531.2	4.32653708141423	-16.139371246132	16.7092258150198	74.9933571848627
642624.9	-0.205790746254666	-0.580318978854589	0.61572717047641	109.525351610059
548046.8	-0.221492389958403	-0.388431313835469	0.447144008544712	119.692774163553
467390.6	-0.169161004075577	-0.27044252387789	0.318989974797486	122.025858305326
398593.7	-0.130147980225627	-0.226269224099091	0.261029229266025	119.907117674711
339937.5	-0.103861427136352	-0.176706077053782	0.204968860353315	120.445468819016
289906.2	-0.0806068010246568	-0.135997122080812	0.158090713154479	120.65562973827
247234.4	-0.0659323419044299	-0.105626515543881	0.124515197847269	121.972515934599
210843.7	-0.0500087775887109	-0.0930661380283431	0.105651237017972	118.251212351004
179812.5	-0.0362532925834267	-0.0644689730431482	0.0739631645373406	119.35066106408
153343.8	-0.0275919212828835	-0.0546768587027237	0.0612443711509756	116.777163831471
130781.2	-0.0194155553542267	-0.0444603277295335	0.0485147867307543	113.590601758071
111531.3	-0.013964798105502	-0.036812573985792	0.0393723404128691	110.774170420326
95109.37	-0.0117333024358476	-0.0306414175686721	0.0328110782612945	110.952990548186
81109.37	-0.00866807516268479	-0.0192816177919463	0.0211403952588558	114.206359500498
69171.88	-0.0065879233780017	-0.021351884898217	0.0223451051270995	107.14711839403
59000	-0.0027318961879125	-0.0182018805345289	0.0184057521382527	98.5357346205521
50312.5	-0.00215269222251835	-0.0154314681283261	0.0155808951090891	97.941520091222
42906.25	-0.00167778730741473	-0.01425149845093	0.0143499191058968	96.7143590856108
36593.75	-0.00139046150197646	-0.0120856830630204	0.0121654066223968	96.5630409319167
31203.13	-0.000927314096749609	-0.0101656396418103	0.0102078470188956	95.2121210425572
26609.38	-0.000719699542739216	-0.00866283075736227	0.00869267531675496	94.7491711440915
22703.13	-0.000235983330022778	-0.00741726709446905	0.00742102009717949	91.8222735434452
19359.37	-2.44150604309205E-05	-0.006101180395498	0.00610122924610976	90.229278985643
16500	0.000108872581531391	-0.00534130333239541	0.00534241280019315	88.832293289555
14112.02	0.000221825110659323	-0.00457255113804735	0.0045779286025207	87.2226256599145
12011.13	0.000282608640917423	-0.00393785458151303	0.00394798256696561	85.8950824485964
10236.38	0.000330033704252563	-0.00328056582425817	0.00329712516796578	84.2552199431525
8750.684	0.000342292761339611	-0.00277448587375417	0.00279552073827524	82.9668670450213
7449.463	0.000424283035088946	-0.00236530230829996	0.00240305453610887	79.8305533702547
6363.206	0.000497831951383473	-0.00208059433781098	0.00213932453132978	76.5436090911482
5414.761	0.000413419670197196	-0.00169138534548778	0.00174117782280754	76.2646932364785
4620.567	0.000190390136299179	-0.00130617422233264	0.00131997708430347	81.7068755577491
3941.215	0.000443508367673142	-0.00137122749396067	0.00144116775997444	72.0767728245288
3361.769	0.000445583333157359	-0.00114794636035802	0.00123139163268508	68.7859324324154
2867.244	0.000468359854684559	-0.000965017972911522	0.00107266986604566	64.1109405988249
2442.658	0.000465692356727587	-0.000804191202430739	0.00092929697146902	59.9256557927328
2083.003	0.000462363012773737	-0.000765640352525578	0.000894418640792274	58.8726166610619
1777.843	0.00044427018283871	-0.000613994423270805	0.000757868819234034	54.1114920821294
1513.548	0.000524112742913404	-0.000618098187201024	0.000810394679341742	49.7039168402604
1292.065	0.000433152951180236	-0.000457188329817438	0.00062979571929111	46.5463636200283
1101.762	0.000394316726893461	-0.000434696381536001	0.000586895753288831	47.7885647677616
939.101	0.000537132630386306	-0.000279080418015419	0.000605307642728367	27.4552379989307
801.2801	0.000460529990364214	-0.000300629992079048	0.000549969330201523	33.1361546446985
684.3433	0.000437280156895823	-0.000273832217621329	0.000515943813823027	32.0554932177243
582.9476	0.000429616484465607	-0.000228549526526383	0.000486626355430962	28.0123076744025
497.0677	0.000375585899214306	-0.000289066843056695	0.00047394557434729	37.5834072138803
423.5089	0.000429907601321121	-0.000352637882376399	0.000556034191179455	39.3608082380454
361.5036	0.000282898307791094	-0.000195672207747188	0.000343975384927066	34.6704382172336
308.1262	0.000334940026669989	-0.00018459630067939	0.000382440342655176	28.8605831492496
262.7298	0.00039433543312626	-0.000123869877182777	0.000413333013794145	17.4387096103623
224.2111	0.000345841215052498	-6.90445018408956E-05	0.000352665974065326	11.2902192967221
191.2854	0.000378335059446235	-8.58165566586735E-05	0.000387945741828593	12.7799725894197
163.1722	0.000435623150684512	-0.000468691704689371	0.000639874552906216	47.0942315933103
139.1537	0.000333548459102056	-0.000144986153535822	0.000363697070769712	23.4935213244986
118.6706	0.000492931918406192	-0.00022914693536479	0.000543590097564961	24.9320808382013
101.1982	0.000284705327929357	-0.000141156948615921	0.000317777292917415	26.3722217154185
86.24196	0.000294681074164815	-7.25624487247413E-05	0.000303483515921145	13.8333383070339
73.61024	0.0003404564926562	-2.14405765387872E-05	0.000341130945113569	3.60349830429613
62.69291	0.00046014706990707	-1.18979814464225E-05	0.000460300866723669	1.48116179055962
53.57697	0.000333568435933979	-5.12348630943022E-05	0.000337480240381171	8.73217473584721
45.65746	0.000335137182561466	-7.29476301119601E-05	0.000342984384300785	12.2797460568028
38.96512	0.000293491162358506	-5.44292294529873E-05	0.000298495566803584	10.5063901146714
33.18414	0.00030200612147848	-7.2085633860233E-06	0.000302092139580898	1.367329400612
28.30617	0.000534704436630735	-0.000396162331021322	0.000665472333814742	36.5347340206083
24.17237	0.000294308424757752	-3.95805145536646E-05	0.000296958020628711	7.6595519067387
20.61345	0.000314767777551409	-6.82848632382449E-05	0.000322089391834191	12.2399312196192
17.55618	0.00034956396079363	2.63171416176957E-05	0.000350553212264068	-4.30542660727972
14.98558	0.00027096763781266	-1.19603467638079E-05	0.000271231470586441	2.52736037911449
12.76553	0.000285487165575758	-4.78968573177407E-05	0.000289477167751442	9.52395084251645
10.8809	0.000296856983406809	-6.47859630188362E-05	0.000303844186387807	12.3111785214437
9.278505	0.000215893645188575	3.80241952066685E-05	0.000219216572033059	-9.98875712423838
7.923394	0.000297964264419471	-0.000115590546548621	0.000319599557763219	21.2029792990144
6.75822	0.000257464211282762	1.81016739177796E-05	0.000258099768868707	-4.02170707445566
5.761429	0.000346182334751494	-2.81038864575324E-05	0.000347321230747579	4.64122628480779
4.919708	0.000187963506499744	-0.000195471485153642	0.000271181454535243	46.1217560572127
4.191257	0.000308913491097135	-9.22879153950068E-06	0.000309051315439846	1.71120262643126
3.564097	0.000179234668562741	-7.59520840658961E-05	0.000194663261784931	22.9651797528746
3.051758	0.000360343327457859	-7.44229664706885E-05	0.000367948490391928	11.6694199542736
2.604164	0.000300313341172005	4.7518251152068E-05	0.000304049481299417	-8.99130635785103
2.214424	0.000224501430327662	0.000206977985624182	0.000305353530767551	-42.6743549475798
1.892567	0.000162360965154597	2.0281616547417E-05	0.00016362281923897	-7.12032413700723
1.607507	0.000146072572361329	-0.000149362865499268	0.000208917356833769	45.6380822752971
1.376413	0.000358090229772031	-0.000140103756300231	0.000384522658874117	21.3680541693695
1.17375	0.000434520387982261	-6.73911519916904E-05	0.000439715288498162	8.81594689507329
1.001604	0.00030259922987898	0.000192852018423584	0.000358828921539781	-32.5101065802708
