EC-Lab ASCII FILE
freq/Hz	Re(Z)/Ohm	-Im(Z)/Ohm	|Z|/Ohm	Phase(Z)/deg
6999984	-4.13874885345765	-5.12749103520386	6.58941624031241	128.909373256027
5969734	4.36480546786709	4.48878451776134	6.26104729412071	-45.8022747906478
5091109	8.40661178336824	6.8657773481687	10.8540324428708	-39.2389114671313
4341796	7.44855209438095	0.758471734692574	7.48706936491404	-5.81427830216242
3702781	1.31569069380397	0.0028840565105622	1.31569385479463	-0.125594869706975
3157797	29.9345340792588	-0.238629839466131	29.9354852097405	0.456736457656409
2693047	4.26134383681327	-4.75502573762106	6.38508583035382	48.1340411294917
2296687	30.5901613205087	-17.759222501834	35.3715698476106	30.1374539731664
1958656	8.44422264504979	-24.7149906306264	26.1177268909666	71.1365490827191
1670375	0.441112501145857	-11.4084030660371	11.4169278160034	87.7857285809691
1424531	-3.19383193047251	-11.3516123442649	11.7923562197965	105.714208244187
1214875	6.98755483307587	-5.50112168280533	8.89315817436488	38.2124461179985
1036062	0.419437746385241	-0.21765820751051	0.472549593576609	27.4260859063144
883578.1	1.53139612920472	2.41664141789859	2.8610015461803	-57.6380644998935
753531.2	0.319107292850758	1.79322301833192	1.82139459146721	-79.9097361375418
642624.9	-0.11258537744103	0.897520310222749	0.904554130207739	-97.1498643056897
548046.8	-0.439246336262559	0.591803959328325	0.7370001833085	-126.583393790914
467390.6	-0.401065896442833	0.30868145148834	0.506100871153609	-142.416223022662
398593.7	0.264642773518755	-0.194944029614354	0.328692823557165	36.3765059959049
339937.5	0.304363304243836	0.219626618931936	0.375330351442166	-35.8139760326455
289906.2	0.350667867394243	-0.125763249652989	0.372537713776883	19.7298245936417
247234.4	0.0966697245020261	0.000348314608430269	0.0966703520132417	-0.206443855558075
210843.7	0.00468993748329387	-0.0848681167546616	0.0849976044078895	86.8369677680119
179812.5	-0.00619672392659432	-0.0678727916671007	0.0681550822470935	95.2165901133593
153343.8	-0.00545537571388692	-0.0548712840826877	0.0551418075607128	95.6777638426601
130781.2	-0.00366496672786096	-0.0443307402055623	0.0444819795904969	94.7260809449478
111531.3	-0.00178173924705137	-0.0376386792150399	0.0376808275890692	92.710243534339
95109.37	-0.000896242542641192	-0.0325626692839457	0.0325750008686241	91.5765892408932
81109.37	0.000611341434501477	-0.029319036688509	0.0293254096423507	88.8054788647429
69171.88	0.000230560556518895	-0.025567921913194	0.0255689614401799	89.4833452321622
59000	-0.000973094396670762	-0.0275123154586022	0.0275295189678002	92.0256735607167
50312.5	-0.00116247756209188	-0.0188648069742148	0.0189005898388583	93.5261927303848
42906.25	-0.00147704584285489	-0.0156484123776441	0.0157179666103062	95.3921443817873
36593.75	-0.00158169976401457	-0.0130570015909036	0.0131524547020069	96.9070447921132
31203.13	-0.00150090331527714	-0.0106974633719596	0.0108022420522884	97.9867264612578
26609.38	-0.00111926325989902	-0.00875815746701987	0.00882938686784511	97.2827332183805
22703.13	-0.000750474255160651	-0.00735349566651665	0.00739169196633207	95.8272485314097
19359.37	-0.000473544644198462	-0.00627783093304104	0.00629566563231371	94.3137232197921
16500	-0.000194296910160348	-0.00527775775482708	0.0052813329953654	92.1083513705541
14112.02	-0.000284598291003494	-0.00466062504505178	0.00466930637223625	93.494393572755
12011.13	-0.00024869421159906	-0.00401269560529564	0.00402039486016509	93.5464754363324
10236.38	-0.000181358091848435	-0.00342488251507993	0.00342968088888444	93.0311571953918
8750.684	-0.000146867100335748	-0.00287292323441293	0.00287667479148941	92.9264778062214
7449.463	-0.000110101085534089	-0.00240197477391421	0.00240449684207653	92.6244717524079
6363.206	-6.38910158590446E-05	-0.00201311927127368	0.00201413288098898	91.8178044726432
5414.761	-4.21024645583686E-05	-0.00168660444339216	0.00168712986044112	91.4299693411192
4620.567	-1.37180347135931E-05	-0.0014414302436771	0.00144149551919645	90.5452652096577
3941.215	-4.35700944156422E-06	-0.00122124160630884	0.00122124937851001	90.2044126173343
3361.769	3.26297120234034E-06	-0.00104170501498553	0.00104171012533577	89.8205308945967
2867.244	-8.02994498561548E-06	-0.000873586197372728	0.000873623101947639	90.5266440813159
2442.658	8.34749915781319E-06	-0.000735344931317371	0.000735392309421535	89.3496168827787
2083.003	-6.06159463374904E-06	-0.000651508238226632	0.000651536435977815	90.5330612086214
1777.843	2.13545530885804E-05	-0.000511651308691392	0.000512096747327326	87.610059720982
1513.548	-9.92917286865427E-06	-0.000452246981271141	0.000452355966626633	91.2577382279028
1292.065	3.71635042974571E-05	-0.000370044040934897	0.000371905523329642	84.2650175214492
1101.762	9.23327044103785E-06	-0.000316418059841584	0.000316552747384934	88.328548796076
939.101	4.23566672172072E-05	-0.000255466838681246	0.000258954422483067	80.5859409273552
801.2801	3.75382998503306E-05	-0.000215820277604166	0.000219060530860292	80.1330750860838
684.3433	4.99275906328385E-05	-0.000204958869112407	0.000210952369823705	76.3094985360577
582.9476	3.85527936207746E-05	-0.000171090974416167	0.000175380841093432	77.3013457752087
497.0677	5.3862293426299E-05	-0.00013164437231365	0.000142237081715689	67.7480766823154
423.5089	4.37396791739448E-05	-0.000104604616787828	0.000113381150935982	67.3081023914344
361.5036	4.96169784711939E-05	-8.7347195417767E-05	0.000100455846519556	60.4015545373685
308.1262	3.20009611477588E-05	-9.36232149378781E-05	9.89412345267861E-05	71.1292725187209
262.7298	5.20743585213499E-05	-7.73095297063893E-05	9.32121354697615E-05	56.0364755751643
224.2111	4.48652716890552E-05	-6.05986921352022E-05	7.53995629445539E-05	53.4849741923098
191.2854	4.23385239673933E-05	-3.58004113722122E-05	5.54456496594382E-05	40.2170363670889
163.1722	5.95233146226254E-05	-3.9366078075687E-05	7.13632474508072E-05	33.4788808090119
139.1537	4.72324643985581E-05	-2.66108154365344E-05	5.4212924578539E-05	29.3969518595834
118.6706	5.77342738523624E-05	-3.19321231679856E-05	6.59765630150206E-05	28.9464466044279
101.1982	4.80979350726913E-05	-2.32368342611939E-05	5.34168683539106E-05	25.7858853557714
86.24196	5.02629597653773E-05	-2.27411140995255E-05	5.51681374967796E-05	24.3440313347467
73.61024	5.3574057983281E-05	-2.43374181104365E-05	5.88429231860396E-05	24.4311667562302
62.69291	5.55073274644846E-05	-8.78814377012553E-06	5.61987088212347E-05	8.99662340618985
53.57697	6.19802175231844E-05	-3.80663580432625E-06	6.20970034733402E-05	3.51451738575452
45.65746	6.62736111760365E-05	-1.21666938595009E-05	6.73811544705438E-05	10.4026847537527
38.96512	5.70038942192325E-05	-9.93683681285772E-06	5.78635004299154E-05	9.8883577297976
33.18414	4.95137544763116E-05	9.1008313579897E-06	5.03431923277322E-05	-10.4149517801464
28.30617	6.77388522798997E-05	-1.72631646830033E-05	6.99039981908801E-05	14.297416932356
24.17237	5.91440021855092E-05	-3.02768600796845E-06	5.92214477793508E-05	2.93051411024916
20.61345	4.75431389979345E-05	-2.2709939295935E-05	5.26886269379073E-05	25.5324145567835
17.55618	6.66670542530596E-05	-1.70541148497301E-05	6.88137991691214E-05	14.3491321029445
14.98558	5.22707290817405E-05	-7.06760706351467E-06	5.27463760683229E-05	7.70035223132997
12.76553	3.8661449638692E-05	-3.23262768773609E-06	3.8796360266559E-05	4.77959559233188
10.8809	5.85273271523998E-05	-1.63180560694024E-05	6.07595834209567E-05	15.5790490355503
9.278505	6.32353578893592E-05	5.97581310584385E-06	6.35170908470415E-05	-5.39848397615157
7.923394	7.33847084462224E-05	1.02415344747788E-05	7.40959139368369E-05	-7.9448562408241
6.75822	3.64788018448637E-05	-2.17411269808318E-05	4.24662170016766E-05	30.7946652120712
5.761429	5.69817410790593E-05	-5.18183102314636E-07	5.69840971686705E-05	0.521024556805488
4.919708	5.14569616377326E-05	-2.46025205333818E-05	5.70359791498538E-05	25.5533217867278
4.191257	5.45287369941056E-05	1.5811292995463E-05	5.67748196330091E-05	-16.1701810519427
3.564097	5.12763820507801E-05	1.01136145254822E-05	5.2264256954324E-05	-11.1576483220848
3.051758	4.33551157931345E-05	-7.48625610108543E-07	4.3361578681365E-05	0.989244864845484
2.604164	4.18919435061526E-05	-3.23539942843512E-06	4.20166959693906E-05	4.41630196204667
2.214424	4.30194152180856E-05	1.1931403921849E-06	4.30359578689904E-05	-1.58868706109843
1.892567	4.12917110932598E-05	-7.55560810382271E-06	4.19772869398177E-05	10.3693386100761
1.607507	3.00083599685302E-05	5.1075299172729E-06	3.04399167189518E-05	-9.65938087655152
1.376413	3.11861678162689E-05	8.4793687328843E-06	3.23183656327591E-05	-15.2107345761064
1.17375	4.99500616716527E-05	2.84340667799276E-06	5.00309266608001E-05	-3.2580454338357
1.001604	5.42101641266474E-05	-9.57291128004022E-06	5.50489102981483E-05	10.0145516841752
