EC-Lab ASCII FILE
freq/Hz	Re(Z)/Ohm	-Im(Z)/Ohm	|Z|/Ohm	Phase(Z)/deg
6999984	39.2023997278637	78.1744949979117	87.4533007530403	-63.3674705638632
5969734	36.5934768767272	74.8425068557152	83.3095635709091	-63.9441525846623
5091109	36.3808842147896	76.8004950136748	84.9816731454225	-64.6527867856801
4341796	39.9382911846642	81.1495382447445	90.4450919623961	-63.7955846283849
3702781	47.9573015829637	85.0582795418671	97.646370612234	-60.5849583275898
3157797	56.4759482858353	89.0511599347882	105.449712282754	-57.6172661319302
2693047	66.2492985610519	92.9693387311239	114.158957177848	-54.5265942751237
2296687	78.2394482947053	96.4060344527616	124.159311967999	-50.9385377563642
1958656	91.3157124976266	97.9358247458241	133.902894358539	-47.0034177827821
1670375	105.229470591878	98.0875140533497	143.855489621401	-42.9881868502848
1424531	119.026639977648	95.8216444101369	152.804216439964	-38.8355835568269
1214875	131.776058231243	92.1082460950625	160.775802040209	-34.9526084721797
1036062	143.5147795061	87.0901084705059	167.872507963898	-31.2509344226457
883578.1	153.759051003064	81.2459617622978	173.904433721638	-27.8518794917659
753531.2	162.448774463965	74.9437524362675	178.902684032612	-24.7656595170276
642624.9	169.722517296058	68.7686037112029	183.125240569669	-22.0569327856112
548046.8	175.389653380659	62.5948195110237	186.224708195786	-19.6409760283508
467390.6	180.698636189233	57.2453286862309	189.549531197108	-17.5782019151649
398593.7	184.562660614099	52.3679238668868	191.848312849196	-15.8407933450999
339937.5	187.777970316013	48.177739560849	193.85989973482	-14.3898522134445
289906.2	190.48963380578	44.8211371091976	195.691683316439	-13.2405332538798
247234.4	192.708373660666	41.9665139733119	197.225012546612	-12.285607415047
210843.7	194.553568216133	40.0618353509849	198.635448893995	-11.6355237711136
179812.5	196.459860096768	38.7257387007682	200.240254362508	-11.1510593074408
153343.8	197.846064099392	38.3028526094404	201.519660573456	-10.956872451515
130781.2	199.26936962154	38.4758919120295	202.949934535077	-10.9284594744545
111531.3	200.707224555244	39.3823721374454	204.534498859829	-11.1014239736486
95109.37	202.196512840182	40.9271244881965	206.29701724359	-11.4427864984096
81109.37	203.508933163407	43.4165823709312	208.088648181682	-12.0429368704973
69171.88	205.274107298487	46.3137739131744	210.433896464594	-12.7141454683372
59000	207.069576637881	50.2065938212381	213.069264869718	-13.6290616643359
50312.5	208.999318032376	54.9881967546392	216.112046680247	-14.7405825981559
42906.25	210.873534844459	60.5341176246766	219.390125334746	-16.0168460868098
36593.75	213.055390389626	67.314397307022	223.436405849368	-17.533820604354
31203.13	215.577818399063	75.4759229991914	228.408429656787	-19.2956543652254
26609.38	218.140721162244	84.7791445251084	234.036060417179	-21.2383307949739
22703.13	221.115371448098	95.5298855146987	240.869189638446	-23.3661012404395
19359.37	224.098840597287	108.036631906276	248.781438597618	-25.7384215320227
16500	227.868135266435	122.619384065597	258.765145292848	-28.2853850891398
14112.02	231.729220209785	139.157033252466	270.30188938049	-30.9854773465836
12011.13	236.150430893002	158.893623609595	284.629952104022	-33.934605709681
10236.38	241.031743732995	181.705046488457	301.849342232745	-37.0113088554422
8750.684	246.515547494923	207.00078339448	321.899424483254	-40.0204087109559
7449.463	252.81263948721	237.349531512346	346.769420211212	-43.1930937465574
6363.206	260.084728191876	271.544079666527	376.005655596539	-46.2348292780818
5414.761	269.306542855571	311.159726658112	411.517180101597	-49.1240434445423
4620.567	278.531547709748	357.138980570665	452.910669462138	-52.0494456253433
3941.215	289.52738060659	410.137868497733	502.035033933665	-54.7807010572643
3361.769	302.133315640365	471.512823877253	560.007931640742	-57.3492937711475
2867.244	316.770561180757	541.35863376492	627.226242102953	-59.6663923904361
2442.658	334.403188076376	622.810397615263	706.907549523505	-61.7674859209603
2083.003	354.526403299958	715.713159181826	798.707892074965	-63.6486209539339
1777.843	378.204496418453	821.779788285675	904.632887720751	-65.2868791775514
1513.548	405.934549592341	945.846619198928	1029.27580638174	-66.7721576698691
1292.065	439.609085246962	1085.13000473621	1170.79600059553	-67.9460908963126
1101.762	478.351128766344	1246.45209813746	1335.08899903464	-69.0046877185963
939.101	525.321424546895	1433.3176777479	1526.55237854212	-69.8717447499678
801.2801	578.360964812935	1641.78711910138	1740.67985283526	-70.5939007549507
684.3433	640.149158406704	1881.02739465675	1986.97131445273	-71.2055904970323
582.9476	719.366358762891	2158.43886391	2275.1585191711	-71.5677571193345
497.0677	809.869752306948	2470.59643817813	2599.94918720351	-71.8506836785701
423.5089	921.842616977184	2827.66873186163	2974.13924818985	-71.9436174329404
361.5036	1048.29977174981	3233.77083118858	3399.44204246768	-72.0387284269321
308.1262	1196.964491918	3693.99269506776	3883.0794514311	-72.0461195824893
262.7298	1374.73733422363	4216.46731346554	4434.91818905734	-71.9419558553345
224.2111	1585.17146786492	4804.29628186492	5059.05439251982	-71.7397590494328
191.2854	1832.56412990786	5469.85901264609	5768.67826355835	-71.4776308581605
163.1722	2105.54857538872	6209.98605819891	6557.22972346908	-71.2703347278821
139.1537	2470.45246531507	7058.08458316106	7477.9471358413	-70.709065271772
118.6706	2876.3997417237	8004.62052500656	8505.74072162704	-70.2344843300651
101.1982	3356.81806962251	9046.4428884199	9649.16351224225	-69.6418740825613
86.24196	3913.1773166799	10223.9536283046	10947.2455213857	-69.0558528497015
73.61024	4560.71348040529	11502.23432415	12373.4191676353	-68.3713401718587
62.69291	5298.57165358377	12954.2963869925	13996.0228797401	-67.7544365138414
53.57697	6164.04458466078	14521.1107306062	15775.2370027272	-66.9993354356384
45.65746	7146.22786014695	16256.0013646071	17757.4252918391	-66.2694445004213
38.96512	8278.37239510816	18139.2827099119	19939.0327433955	-65.469079756403
33.18414	9537.91520525451	20252.5737537617	22386.1244996579	-64.7819887684822
28.30617	10930.4737455493	22573.4650725082	25080.6017009539	-64.1629078708433
24.17237	12533.1964413146	25001.5603466518	27967.106264393	-63.3755492687745
20.61345	14261.0574211399	27752.854981382	31202.543460216	-62.8032217272183
17.55618	16226.2731457132	30786.7005107887	34801.0469460373	-62.208319648534
14.98558	18332.7758958429	34042.1017817765	38664.6526658139	-61.696095379687
12.76553	20689.4737650784	37692.8749413203	42997.7574533589	-61.2377864393619
10.8809	23257.0914803707	41689.1883262578	47737.6238142256	-60.8442217298865
9.278505	26062.9627049202	46105.6894443426	52962.3698874609	-60.5210735334328
7.923394	29038.8934571721	50925.5628171187	58623.1207072542	-60.3072456842899
6.75822	32369.7116603342	56369.0830392021	65002.0903944915	-60.1335821765858
5.761429	36185.8887265184	62503.3952725693	72222.5239348986	-59.9316145538022
4.919708	39931.250045901	68999.7564405831	79721.208715674	-59.9413548363194
4.191257	44101.0942536947	76650.1795516723	88431.6489706986	-60.0857974964719
3.564097	49076.5352529696	85183.0461884148	98308.9907911457	-60.0524513527953
3.051758	54267.982259629	94372.9742646308	108863.548399288	-60.0994911877755
2.604164	59963.4403240058	105175.352699337	121068.034554627	-60.3113136846354
2.214424	66550.3089987906	117187.144475438	134765.613040351	-60.4078570731149
1.892567	73516.2524178274	130464.372735873	149751.767678804	-60.5988812020115
1.607507	81527.4656954545	145867.596964094	167105.007425879	-60.7985569936146
1.376413	90363.627917538	162080.670212559	185568.663591059	-60.859347815678
1.17375	100456.176576893	181253.880916445	207230.337450193	-61.0035039969329
1.001604	111329.31079373	202441.322795322	231033.990176612	-61.19212170309
