EC-Lab ASCII FILE
freq/Hz	Re(Z)/Ohm	-Im(Z)/Ohm	|Z|/Ohm	Phase(Z)/deg
6999984	6.45321336335839	3.41370646429321	7.3005037180584	-27.8785392179733
5969734	4.60481656378782	1.18061920306469	4.7537561242432	-14.3801921450186
5091109	2.75808738436989	0.0771747304558036	2.75916689579324	-1.60278927130999
4341796	1.76932707164025	-0.290410447660326	1.79300209552286	9.32119253797556
3702781	1.07208335622911	-0.305954771178066	1.11488611288782	15.927865741226
3157797	0.789379153052659	-0.194739604854678	0.813045485180927	13.8581359204072
2693047	0.649324907757892	-0.0996772482790815	0.656931038739443	8.7272931354327
2296687	0.58244237798792	-0.00604783886639603	0.582473776260509	0.594914110798032
1958656	0.553548744176878	0.0499679922546918	0.555799435434909	-5.15802218390209
1670375	0.54521643713009	0.0785936035532691	0.550851992677088	-8.20275027399043
1424531	0.537416892348467	0.0901248603444201	0.544921468317761	-9.51992294921668
1214875	0.540997367161365	0.0874590186263833	0.548021195953786	-9.18313262766083
1036062	0.541385753820266	0.0790115277115628	0.547120970125303	-8.30330436703589
883578.1	0.540428862605875	0.0704052360974427	0.544995644760045	-7.42249634858128
753531.2	0.536975315466025	0.0633175425293629	0.540695478630805	-6.72498898794491
642624.9	0.534213790108294	0.0552178671811224	0.537059946745148	-5.90129913208689
548046.8	0.531330871814827	0.047460579822769	0.533446344050287	-5.10433947624511
467390.6	0.528554372622821	0.0403442063180263	0.53009185977728	-4.36488530246942
398593.7	0.526377047024162	0.0344744930897943	0.52750477372975	-3.74717320100314
339937.5	0.524572205385219	0.0299473076926591	0.525426341080033	-3.26741272082829
289906.2	0.523789005532315	0.0263724892970577	0.524452505483818	-2.88237706109125
247234.4	0.523612914249581	0.0232505967912192	0.524128871767323	-2.54250136180862
210843.7	0.523231753981863	0.0207202553403383	0.523641859820531	-2.26775835876087
179812.5	0.523924791927657	0.0188502075965201	0.524263786583501	-2.06054702623622
153343.8	0.524454403745787	0.0164887535670646	0.524713541470529	-1.80077598333304
130781.2	0.525080401293051	0.0158204793722457	0.52531867984076	-1.72577867273939
111531.3	0.525871883485326	0.0142091597075199	0.526063815577538	-1.54776641537019
95109.37	0.526397940327827	0.0126599891054051	0.526550156115756	-1.37771082290198
81109.37	0.52678693397745	0.0111509788251325	0.526904942222144	-1.21265084944951
69171.88	0.527137886532473	0.00981967969073398	0.527229340540861	-1.0671992106198
59000	0.527562782443474	0.00867652046559653	0.527634126480547	-0.942225656345868
50312.5	0.527709576261981	0.00761098630572759	0.527764458817705	-0.826301397488229
42906.25	0.527866841386822	0.00685967786668104	0.527911410575803	-0.744521985473616
36593.75	0.528104497389113	0.00586267603619705	0.528137038213486	-0.636034718796776
31203.13	0.528282812158118	0.00537960528974562	0.528310202224757	-0.583433755456995
26609.38	0.528366336937018	0.00471831686454836	0.528387403826281	-0.511638304909876
22703.13	0.52852897603864	0.00425901196923746	0.528546135824875	-0.461693000950527
19359.37	0.52850410823905	0.00364941427864737	0.528516708014165	-0.395631196355061
16500	0.528603756291821	0.00329994537903613	0.528614056571832	-0.35767904496339
14112.02	0.528658292494093	0.00282802424421842	0.528665856608781	-0.306497240786369
12011.13	0.528682766283224	0.0025556390910575	0.528688943194432	-0.276964188532131
10236.38	0.528624617494395	0.00224894444994196	0.528629401350544	-0.243753778557183
8750.684	0.528568788291632	0.00194864585158564	0.528572380262854	-0.211228282330535
7449.463	0.528598931272798	0.00164117121940727	0.528601478985555	-0.177888899555904
6363.206	0.528371571427294	0.00142613804051036	0.528373496082325	-0.154647783328894
5414.761	0.528125939114771	0.00131961729907993	0.528127587762346	-0.143163474579071
4620.567	0.52786877118491	0.00110834815646181	0.527869934764145	-0.120301828299777
3941.215	0.527655338765751	0.000945299244298231	0.527656185521084	-0.102645790068144
3361.769	0.527519760784431	0.000916186691332005	0.527520556391992	-0.0995101639427311
2867.244	0.527336006959223	0.000845915179748768	0.527336685437482	-0.0919097641987617
2442.658	0.527252973018747	0.000694032452532964	0.527253429802171	-0.075419408601322
2083.003	0.52721726367935	0.000638089256923297	0.527217649817835	-0.0693448527615655
1777.843	0.527069010858029	0.000638368377750675	0.527069397443114	-0.0693947000897419
1513.548	0.526950825518894	0.000494739784299997	0.5269510577677	-0.0537934317508964
1292.065	0.526939786929118	0.000473910064590564	0.526940000037627	-0.0515296812319125
1101.762	0.526672487177442	0.000368192055715317	0.526672615877323	-0.0400549637955802
939.101	0.526538048295179	0.000325795406305918	0.52653814908812	-0.0354517578441417
801.2801	0.526549322445309	0.000350743085656009	0.526549439263139	-0.0381656469252922
684.3433	0.526385827140403	0.000297328750250154	0.526385911113388	-0.0323634866804968
582.9476	0.526125891776948	0.000242186077158345	0.526125947518448	-0.0263743703071502
497.0677	0.525936406124953	0.000158070454588591	0.52593642987903	-0.0172202751805467
423.5089	0.525775812046169	0.000158147532921385	0.52577583583068	-0.0172339344943826
361.5036	0.52562903115784	9.51584090791168E-05	0.525629039771446	-0.0103726674948658
308.1262	0.525409914437252	0.000189091305959459	0.525409948463562	-0.0206203442467238
262.7298	0.525363185383096	0.000182808533543187	0.525363217188673	-0.0199369832140492
224.2111	0.525159590753693	0.000161934382872111	0.525159615720145	-0.0176673083114636
191.2854	0.524963616813084	6.91068933691707E-05	0.524963621361745	-0.00754249089961552
163.1722	0.524760572911444	0.000113427157029455	0.524760585170101	-0.0123844999304866
139.1537	0.524622225160285	3.85620681876319E-05	0.524622226577526	-0.00421149476043038
118.6706	0.524483708471836	3.21995181730372E-06	0.52448370848172	-0.000351754775953297
101.1982	0.524363803727779	2.57537244806688E-05	0.524363804360216	-0.00281403809303481
86.24196	0.524295023299557	0.0001277579593377	0.524295038865312	-0.013961589179896
73.61024	0.524080676109168	-8.44666066565044E-06	0.524080676177236	0.000923441807990299
62.69291	0.523934032030609	0.000121986357833655	0.523934046231511	-0.0133400445637381
53.57697	0.52377691441999	2.32897771794179E-05	0.523776914937781	-0.00254766084675377
45.65746	0.52366061805502	-1.50632024146309E-05	0.523660618271668	0.00164812455684972
38.96512	0.523503648693085	5.68211383817437E-06	0.523503648723922	-0.000621888963792791
33.18414	0.523423597180133	3.88826633124195E-05	0.523423598624337	-0.00425623245098979
28.30617	0.523258131977554	-2.78795020204436E-05	0.523258132720272	0.00305275293696694
24.17237	0.523145870985806	4.74776014316272E-05	0.523145873140198	-0.00519982346576145
20.61345	0.522998885919224	-2.3601203381254E-05	0.522998886451746	0.00258556830743742
17.55618	0.522898825637336	7.26195614259692E-07	0.52289882563784	-7.95716910384146E-05
14.98558	0.522700782975109	2.9262702916118E-06	0.5227007829833	-0.000320762743969537
12.76553	0.522557381882012	-2.41824088809119E-05	0.522557382441557	0.00265147908035809
10.8809	0.522498334650805	5.01501009115207E-05	0.522498337057542	-0.00549932683992578
9.278505	0.522293020410949	9.28453675220327E-05	0.522293028663273	-0.0101851785155651
7.923394	0.522126361646576	-1.14217073495945E-05	0.522126361771503	0.0012533663762871
6.75822	0.521998919171929	6.43428395777967E-06	0.521998919211585	-0.000706241529265336
5.761429	0.521937412098859	3.93353486130054E-05	0.521937413581096	-0.00431804542975968
4.919708	0.521652594937383	3.44439592809827E-05	0.521652596074526	-0.00378315666941074
4.191257	0.521482405440867	-1.70955230366097E-05	0.521482405721085	0.0018783017566766
3.564097	0.521256904520214	2.99508379589595E-05	0.521256905380684	-0.00329215131954866
3.051758	0.521053767326196	-2.93304396471064E-05	0.52105376815171	0.0032252149521747
2.604164	0.520756820278371	1.04595465486073E-05	0.520756820383412	-0.00115080177433852
2.214424	0.520407405020937	-4.23591332733723E-05	0.520407406744871	0.0046636529988248
1.892567	0.520052519916851	2.82449676768913E-05	0.520052520683868	-0.00311183462592744
1.607507	0.519685188963228	4.70829896160037E-07	0.519685188963441	-5.19094376585252E-05
1.376413	0.519261192385844	1.02012444159551E-05	0.519261192486049	-0.00112561512262237
1.17375	0.518657203612393	3.02651778698773E-06	0.518657203621224	-0.000334337775713792
1.001604	0.517831175157016	2.27167461797324E-06	0.517831175161999	-0.0002513509697375
