EC-Lab ASCII FILE
freq/Hz	Re(Z)/Ohm	-Im(Z)/Ohm	|Z|/Ohm	Phase(Z)/deg
6999984	21.3079985800654	5.66867867803212	22.0491433267337	-14.8976360593792
5969734	14.6243319515559	-2.82850924736282	14.8953532885835	10.9464847266893
5091109	7.94602750787574	-13.1424013223515	15.3578014596382	58.8424217852585
4341796	5.83754727253282	-9.68485169380699	11.3081081746723	58.9205159327348
3702781	4.38001596107344	-7.82285153775929	8.96557560902149	60.7555278632003
3157797	3.71952291848123	-6.24972865676077	7.2728233186462	59.241028523331
2693047	3.22908336475304	-4.95861965205746	5.91733793443431	56.9275796451974
2296687	3.14677982170202	-4.14475716205593	5.20396341058283	52.7935287251459
1958656	2.84108683981663	-3.51914975408211	4.5228519125697	51.0853008955869
1670375	2.68727176129499	-2.96156186413523	3.9990346577835	47.7799245642111
1424531	2.58019449907884	-2.54314003584307	3.6228393415917	44.5856161014213
1214875	2.40479266009032	-2.2218338381835	3.27407595246682	42.7354322485408
1036062	0.87053665735982	-1.87091471713243	2.06352997327151	65.0474401149663
883578.1	0.783349402220191	-1.60654576878759	1.78735155835891	64.006203913875
753531.2	0.711345052380428	-1.38379497279589	1.55592426238596	62.7943981771733
642624.9	0.646516442796978	-1.20803148025937	1.37015457817886	61.8451217022006
548046.8	0.613087348855796	-1.03988365102169	1.20715951928038	59.477545501161
467390.6	0.574837087921109	-0.904624838020997	1.07181331173583	57.5663874797226
398593.7	0.542957125246021	-0.785789707683199	0.955127166693666	55.3566897991313
339937.5	0.514440611953044	-0.685199629909214	0.856824180362778	53.1011669540855
289906.2	0.493035778766324	-0.594562151637752	0.77239137184709	50.3330588767817
247234.4	0.473430709665464	-0.516660519525576	0.700767243306066	47.5000862474912
210843.7	0.457585748045627	-0.447634385914188	0.640125972186139	44.3701553225624
179812.5	0.443961234596786	-0.386581708390264	0.588682422946904	41.047899654542
153343.8	0.435417748546036	-0.336337694185945	0.550192384788463	37.6842305970895
130781.2	0.428421892839048	-0.292678302546623	0.518850563308324	34.3391081834654
111531.3	0.419776956038123	-0.255297875259923	0.491314255780212	31.3069238583858
95109.37	0.412424556664552	-0.222497369192599	0.468614014128451	28.3462503957166
81109.37	0.405291552921308	-0.194133251523942	0.449387318709177	25.5942596211899
69171.88	0.398725301595632	-0.168381364938705	0.432821152661407	22.894293414461
59000	0.388397966737768	-0.14306695326554	0.413909571866508	20.2213478973506
50312.5	0.385166550337263	-0.108003739973067	0.400022598545229	15.6639155441651
42906.25	0.412105865801387	-0.115801142762764	0.4280667579865	15.6952849834485
36593.75	0.396898786174127	-0.104053945808417	0.410311918063315	14.6904774389717
31203.13	0.39178508753719	-0.0918573282994323	0.402409397975288	13.1951435373495
26609.38	0.387598728728946	-0.081441871346001	0.396062561877078	11.8663111709923
22703.13	0.383282681758952	-0.0718758384139221	0.389963780733594	10.6211478314581
19359.37	0.380674697792699	-0.0636604897827812	0.385960987016753	9.49376169629101
16500	0.378439572844838	-0.0566102551107292	0.382650272806234	8.50771279002676
14112.02	0.376108395739555	-0.0504422880148992	0.379475888253734	7.63871916130775
12011.13	0.374048083823567	-0.0456346763489008	0.376821566125867	6.95583368360312
10236.38	0.37211623893828	-0.0411221506438829	0.374381525392412	6.30610527350272
8750.684	0.37041064227477	-0.0369920923156668	0.372253218662107	5.70309297722831
7449.463	0.368333433480142	-0.0332587504907326	0.369831938457828	5.15954338684817
6363.206	0.36697512573933	-0.0307835868785368	0.36826399787721	4.79501159476767
5414.761	0.365273744298397	-0.0267386852659324	0.366251096330811	4.18668511494342
4620.567	0.363607873908107	-0.0248524009362898	0.364456208343708	3.91005421596072
3941.215	0.359890636313479	-0.0245752109556914	0.360728722310322	3.90639072381865
3361.769	0.364369949679086	-0.0170362903277948	0.364768002183953	2.6769418977315
2867.244	0.352513228324072	-0.0196756185992103	0.353061901244981	3.19466426958053
2442.658	0.352237151070686	-0.0244859141128073	0.35308719968916	3.97654310329668
2083.003	0.365560642199246	-0.011488745169207	0.365741130296673	1.80008442327431
1777.843	0.365826161331919	-0.0119016679855724	0.366019712605327	1.86338480048037
1513.548	0.351931534064982	-0.0078755324342627	0.352019642463961	1.28195238660176
1292.065	0.360141227701946	-0.00812030588173287	0.360232762610896	1.29166115644025
1101.762	0.353962467850017	-0.0248832155405822	0.354836022779697	4.02122177920318
939.101	0.34438717751755	-0.0160559966863712	0.344761255172471	2.66930723511138
801.2801	0.344345185184978	-0.0107663007607939	0.344513453717193	1.79082714417838
684.3433	0.350033310981022	-0.0212905003313053	0.350680202179556	3.48068250907866
582.9476	0.344045465521135	-0.00745230921863053	0.344126167645451	1.24087990705781
497.0677	0.353165982097332	-0.0118994586637126	0.353366393460474	1.92977513907556
423.5089	0.351228179062754	-0.0161570186338606	0.35159960611308	2.63383427209924
361.5036	0.345232764133629	-0.0058798927737702	0.345282832718884	0.975748843981177
308.1262	0.345399743767549	-0.0190078704848609	0.34592236431757	3.14989621225798
262.7298	0.34722179536025	-0.0151448141277771	0.347551924995619	2.49749380812771
224.2111	0.348671271564485	-0.0149636071149852	0.348992213598365	2.45740280528681
191.2854	0.348167790970479	-0.00365451378188727	0.348186970089699	0.601378220642697
163.1722	0.348999287425586	-0.0138106370107094	0.34927243853217	2.26613230453829
139.1537	0.33568096913591	-0.00531120475558643	0.335722983925705	0.906468506267344
118.6706	0.335156351333083	-0.0169407695078929	0.335584221188101	2.89360245021345
101.1982	0.339341916358271	-0.00455295219019044	0.339372458474977	0.768691637103415
86.24196	0.337769191282839	-0.0135019793496828	0.338038947498986	2.28912166311012
73.61024	0.343687942769696	-0.0341580181085114	0.345381198397318	5.67580070561505
62.69291	0.280145486372579	-5.9678552534519E-06	0.280145486436145	0.00122055480223334
53.57697	0.340537294760644	-0.00666755044070757	0.340602562162673	1.12167947552761
45.65746	0.31240224844688	0.00869580268592617	0.312523250045527	-1.59443210891021
38.96512	0.338267683848608	-0.0159727759537901	0.338644585824094	2.70346067632134
33.18414	0.324439401279006	-0.0129245668505811	0.324696734708797	2.2812635469499
28.30617	0.335314009531508	-0.0190188217693938	0.335852944857704	3.24630610157126
24.17237	0.333224264328053	-0.000506778848306063	0.333224649691126	0.0871373122442195
20.61345	0.308361321080202	0.00135186993457124	0.308364284395336	-0.251185671413605
17.55618	0.339310573295844	0.00703406728387504	0.339383475220743	-1.18759826985741
14.98558	0.320096624405413	-0.0334046706323336	0.321834928147637	5.95771255659547
12.76553	0.29555937671798	0.00719079077161238	0.295646837692951	-1.39369863721731
10.8809	0.346291688267697	-0.0201881721250748	0.346879655870798	3.33646272950848
9.278505	0.289192631830197	0.0100410638917577	0.289366897327518	-1.98856920322291
7.923394	0.315309597434441	-0.0423478144348359	0.318140660120137	7.64936471714128
6.75822	0.342998290930399	0.0132089054434587	0.343252534971249	-2.205377578816
5.761429	0.27851671045941	0.0217862028761614	0.279367493887338	-4.4726970519058
4.919708	0.28203016457443	-0.0275588343044618	0.283373433966737	5.58099108742357
4.191257	0.318447430424378	-0.0381400660211772	0.320723292855366	6.82971421373893
3.564097	0.342643575920689	-0.00776508754705058	0.342731551953319	1.29823126347702
3.051758	0.315983699805092	0.0290303570602561	0.31731444999174	-5.24919695784126
2.604164	0.29197385762958	0.0295096662951245	0.293461332962195	-5.771260630904
2.214424	0.267445670660272	0.0156886647815115	0.26790543286307	-3.35718775887396
1.892567	0.271466405410126	0.00750108890977592	0.271570019702336	-1.58277929327284
1.607507	0.258428727392136	-0.0110605257280562	0.258665309562183	2.45071409598646
1.376413	0.274429269720832	-0.0344994763146047	0.276589294705148	7.16526694645729
1.17375	0.264568991709065	-0.0231959155503775	0.265583888577925	5.01055831729589
1.001604	0.285215099824205	-0.0340977283108423	0.287246076115395	6.81740708029952
