EC-Lab ASCII FILE
freq/Hz	Re(Z)/Ohm	-Im(Z)/Ohm	|Z|/Ohm	Phase(Z)/deg
6999984	6.81025669888767	1.90988257844937	7.07299425761175	-15.6657318203757
5969734	4.36469728238889	-0.0447840203143255	4.36492702978738	0.587863292171152
5091109	2.38210191733374	-0.822882093754311	2.52022707008447	19.0571492238463
4341796	1.37958126931222	-1.05721373991518	1.73808669821231	37.464008538953
3702781	0.656241438114368	-0.720684988887525	0.974699788809984	47.6796283021734
3157797	0.368080735746811	-0.53148026977909	0.646494164855622	55.2951655910902
2693047	0.251463139571778	-0.353160036050372	0.43353860453989	54.5477134994523
2296687	0.18656885849205	-0.194010955361452	0.269162013960533	46.1202549077895
1958656	0.165734276484234	-0.0949830388623561	0.191022585243946	29.8172106727339
1670375	0.166421802991959	-0.0301326956905041	0.169127750120053	10.2629116996305
1424531	0.171565028705624	0.00597128370637283	0.171668911873593	-1.99336256813697
1214875	0.179762894226936	0.0230390594259059	0.181233265158676	-7.30341853001924
1036062	0.187636324438959	0.0317722070713548	0.190307286752629	-9.6106565456536
883578.1	0.192380435161212	0.0336964037119657	0.195309189379141	-9.93486471402837
753531.2	0.194775666132692	0.0332733600395732	0.197597258598789	-9.69421098091753
642624.9	0.195610892197555	0.0301235139078502	0.197916768457046	-8.75461176310454
548046.8	0.196093376294268	0.0266758294958662	0.197899500013966	-7.74675608315761
467390.6	0.195667024691477	0.0230905830878355	0.197024768947844	-6.73032322501758
398593.7	0.195088594227567	0.0198860158757332	0.196099498278548	-5.82024279280973
339937.5	0.194636192945239	0.017717021452113	0.195440887363291	-5.20109199431987
289906.2	0.194537362307577	0.0157750974067548	0.195175918165593	-4.63598945056029
247234.4	0.194377934698731	0.0142790212482187	0.194901698159742	-4.20140669253152
210843.7	0.194348013520232	0.012977095299095	0.194780787968583	-3.8201095824077
179812.5	0.194839749464211	0.0120573059167625	0.195212465271168	-3.54113012942275
153343.8	0.195033440360496	0.0108089555936697	0.195332732484541	-3.1721464552741
130781.2	0.195790284635848	0.0107826676838267	0.196086974274597	-3.15223960964007
111531.3	0.196973863917765	0.0100000913611082	0.197227545981602	-2.90633242650567
95109.37	0.197957808549563	0.00904113231248731	0.198164164366914	-2.61499656571093
81109.37	0.19876884309425	0.00806869218684161	0.198932543286996	-2.32455108132983
69171.88	0.199475577636294	0.00719336450575928	0.199605236820695	-2.06526991734148
59000	0.199843101599453	0.00630847499060817	0.199942647060592	-1.8080634335293
50312.5	0.200102438507038	0.00556056652890579	0.200179683775815	-1.59175983375372
42906.25	0.200240361909728	0.00479868539818132	0.200297853007189	-1.37280916896463
36593.75	0.200653348641059	0.00435911709718191	0.200700693129688	-1.24453308595956
31203.13	0.200920366430131	0.00397362979511943	0.200959656100837	-1.13299882972822
26609.38	0.201133404262481	0.00359895025489435	0.2011656003226	-1.02510400141154
22703.13	0.201404924617499	0.00327574313251856	0.20143156195902	-0.931802981094643
19359.37	0.201552272761476	0.00293024235581572	0.201573572115941	-0.832928800304507
16500	0.201725784259796	0.00269341712068484	0.201743764540606	-0.764960535941523
14112.02	0.201946714911238	0.00231391179830201	0.201959970913176	-0.656468112644526
12011.13	0.202064459738569	0.00213057185078386	0.202075691823265	-0.60410549974752
10236.38	0.202101482123568	0.00187542684463404	0.202110183569242	-0.531668336469854
8750.684	0.202020366133182	0.00165293661071961	0.20202712820813	-0.468785301721774
7449.463	0.201997596706452	0.0014632244734719	0.202002896268945	-0.415030286791041
6363.206	0.202098978368062	0.00126834820743977	0.20210295832716	-0.359576509293525
5414.761	0.202098329745303	0.00115704538485045	0.202101641853459	-0.328023952698789
4620.567	0.202027500041686	0.0010131820635071	0.202030040615219	-0.287339938539934
3941.215	0.201979107370902	0.000882128960186803	0.201981033678533	-0.250233530149656
3361.769	0.201972560026983	0.000810102952285729	0.201974184663898	-0.229809590105525
2867.244	0.201782636036858	0.000715009472444996	0.201783902837983	-0.203024672619852
2442.658	0.20152678195796	0.000593453752398573	0.201527655753962	-0.168723465594535
2083.003	0.20124717955392	0.000531190145304974	0.201247880588538	-0.151231350588088
1777.843	0.200960508666479	0.000447227699445974	0.200961006307456	-0.127508720630051
1513.548	0.20074483456001	0.000401160780850311	0.200745235391772	-0.114497536651984
1292.065	0.200560935329909	0.000337899968403825	0.200561219972348	-0.0965303823375943
1101.762	0.200447333095799	0.000311292352737529	0.200447574812336	-0.0889796007386832
939.101	0.200375451473745	0.000241868916684715	0.200375597451087	-0.0691604749430924
801.2801	0.200338359904965	0.000220193983423072	0.200338480913682	-0.0629743642206239
684.3433	0.200367158943041	0.000177441595737613	0.200367237512588	-0.0507401110127545
582.9476	0.200327677553408	0.000120617769984306	0.200327713865527	-0.0344979206251197
497.0677	0.2002503531481	0.000107204557450449	0.20025038184422	-0.0306734445313554
423.5089	0.20015622719975	8.00089733661887E-05	0.200156243190847	-0.0229029909137911
361.5036	0.200149075007168	4.54159074489696E-05	0.200149080159839	-0.0130010082476253
308.1262	0.200062434980135	3.10398670924212E-05	0.200062437388067	-0.00888949175765628
262.7298	0.200019452902255	-5.62722527610062E-07	0.200019452903047	0.000161192451039556
224.2111	0.19991839293553	4.31016065111395E-05	0.199918397581797	-0.0123527408799025
191.2854	0.199804850128548	1.53367925484593E-05	0.199804850717166	-0.00439795871823555
163.1722	0.199702598845047	2.41344784470565E-06	0.199702598859631	-0.000692431527529298
139.1537	0.199687366732811	1.93876484938813E-05	0.199687367673984	-0.00556284780588296
118.6706	0.1996427187974	5.25249811498491E-06	0.199642718866495	-0.00150742273814164
101.1982	0.199604589097292	4.59773601908976E-06	0.199604589150244	-0.00131976359037583
86.24196	0.199586149707512	3.95622066165574E-05	0.199586153628546	-0.0113572381700186
73.61024	0.199547142306393	2.45371946266569E-06	0.199547142321478	-0.000704534115035846
62.69291	0.199536684140639	3.33536146091771E-05	0.199536686928256	-0.00957729321324313
53.57697	0.199525511608477	3.64747603696782E-05	0.199525514942406	-0.0104740982133378
45.65746	0.199565606306233	2.26814494733499E-05	0.199565607595153	-0.00651190025435781
38.96512	0.199664749766149	2.81981137021207E-05	0.199664751757321	-0.00809172824202793
33.18414	0.199711877055965	7.44699028207201E-06	0.19971187719481	-0.00213648341465609
28.30617	0.199638919925662	3.17987868930573E-05	0.199638922458141	-0.00912615770451302
24.17237	0.199638627143466	1.74575954409132E-05	0.199638627906764	-0.00501028558938541
20.61345	0.199697636164802	8.55104879185035E-06	0.19969763634788	-0.00245340413283459
17.55618	0.199780445367324	2.63639666918054E-05	0.199780447106881	-0.00756102035471006
14.98558	0.199810757169828	5.49749526688683E-06	0.199810757245456	-0.00157640800259099
12.76553	0.199900805784562	2.01018251966471E-05	0.199900806795272	-0.00576160629205605
10.8809	0.19992633110674	5.14794508533472E-06	0.199926331173018	-0.00147532105879605
9.278505	0.200012261504841	1.90371031035939E-05	0.200012262410814	-0.00545339395940573
7.923394	0.20009269087261	-2.10382657601178E-06	0.20009269088367	0.000602422722703221
6.75822	0.200155278485074	1.68430346994307E-05	0.200155279193744	-0.00482143067870116
5.761429	0.20013273815663	1.31074115171487E-05	0.200132738585856	-0.00375250629216021
4.919708	0.20001281636896	-3.60035074121749E-05	0.200012819609384	0.0103135840870319
4.191257	0.199923271718652	1.29912121386023E-05	0.199923272140743	-0.00372313647558181
3.564097	0.199853151321659	2.56111813432726E-06	0.199853151338069	-0.00073424541446015
3.051758	0.199694783044033	4.21356990759357E-06	0.199694783088487	-0.00120894381251501
2.604164	0.199539242646365	8.05901288570005E-06	0.199539242809109	-0.00231406824551012
2.214424	0.199324050992057	-7.63212190269676E-06	0.199324051138174	0.00219385654347151
1.892567	0.199074352969358	1.14308772304728E-05	0.19907435329754	-0.00328993168105032
1.607507	0.198821068627554	-8.03474708436703E-07	0.198821068629178	0.000231543417689371
1.376413	0.198712300432754	1.00533381583606E-05	0.198712300687066	-0.00289873271431105
1.17375	0.198784474836157	1.28342731428808E-05	0.198784475250471	-0.00369923095749556
1.001604	0.198783339996828	7.34601447892603E-06	0.198783340132563	-0.00211735865641242
