EC-Lab ASCII FILE
freq/Hz	Re(Z)/Ohm	-Im(Z)/Ohm	|Z|/Ohm	Phase(Z)/deg
6999984	2.92950186785846	1.10517930190742	3.13103856302518	-20.6694066227208
5969734	4.61793353086475	1.36629086810246	4.81581362095183	-16.4817096643112
5091109	5.0643276755233	0.556260437423299	5.09478561661956	-6.26818119704301
4341796	-2.10200128270716	-7.92190741930819	8.19603724690125	104.860443833663
3702781	-0.209989943722617	-5.8199076916737	5.82369481652905	92.0664108599505
3157797	-1.23892977820767	-6.0806382488167	6.205570764104	101.516375662382
2693047	-1.99786353013452	-5.6643118583288	6.00632063025658	109.428292559564
2296687	-1.54912431045706	-3.6297223795172	3.94647572925731	113.112239294916
1958656	-2.74993470267432	-5.53510998885043	6.18058115856788	116.418950617955
1670375	-0.6348725749833	-2.96741170193695	3.03456675577557	102.076270019784
1424531	-0.50190358097996	-2.60123772942647	2.64921590845146	100.920900625902
1214875	0.327791833865177	-1.77598203449209	1.80597886842215	79.5426420782014
1036062	0.953513720638302	-2.26492514026356	2.45745280858929	67.1693320134537
883578.1	1.60880467334096	-1.28940936544202	2.0617538622865	38.7111428533024
753531.2	2.06982840288306	-0.157147787007199	2.07578540421275	4.34174353712409
642624.9	1.55388762647572	0.434662929547304	1.61353606034604	-15.6276931523569
548046.8	1.11782169539863	0.234373894763769	1.14212804240619	-11.8416797153797
467390.6	0.609919594830823	-0.021349158988273	0.61029312526695	2.00471916459426
398593.7	0.530414382992749	0.230307342220223	0.57825676785155	-23.4706144718493
339937.5	0.581654565262884	0.365526962815168	0.686973066310489	-32.1463299465643
289906.2	0.309664770581908	0.0789779128000553	0.319577503666636	-14.3078791416951
247234.4	0.484534041511716	-0.534164664324001	0.72118314317242	47.789223669226
210843.7	0.134112617094767	0.0950379243929026	0.164372750591206	-35.3230142275758
179812.5	0.242323987334062	-0.310091644552284	0.393545096346809	51.993822882592
153343.8	0.159013347155826	-0.0766754566811907	0.176534331592947	25.7431369746767
130781.2	0.0830835775365695	-0.00214854815108439	0.0831113537095425	1.48134341818067
111531.3	-0.00912362802485187	-0.191159360649585	0.19137696243878	92.7325315925696
95109.37	0.05208846580623	-0.114456100610511	0.125751370716228	65.5299278742459
81109.37	0.117129551065385	-0.0592203676875063	0.131249318786125	26.8210310155004
69171.88	0.0576987552353478	-0.00649422644406427	0.058063080634904	6.42184274811915
59000	0.0851455258134075	-0.0521180111019374	0.0998300938958955	31.4710132413334
50312.5	-0.00410638568261361	-0.0458192180064806	0.0460028601512968	95.1212499362495
42906.25	0.065156524801771	-0.0049967155155422	0.0653478376856271	4.38530838307686
36593.75	0.0379749540725542	0.0838554861681485	0.0920534610827271	-65.6360396579041
31203.13	0.0898703211839817	0.0210825096640043	0.0923100581921865	-13.2021851886517
26609.38	0.0880490807248053	0.0615015173557073	0.107401476961621	-34.9339644255261
22703.13	0.042712993843976	0.0482524087157143	0.0644414058659793	-48.4847715142031
19359.37	0.0733890138962115	-0.00224290696276423	0.0734232796346087	1.75052242807991
16500	0.121132382742433	0.0832486286322423	0.146980911406918	-34.4989233012612
14112.02	0.0729025942071827	0.0292293664829615	0.0785438992356021	-21.8476885988294
12011.13	0.0445156144629882	-0.0438639655697199	0.0624954990900863	44.5775488556659
10236.38	0.0361511677031764	-0.0362620713159556	0.051203952410206	45.087750583496
8750.684	0.034683111291048	0.106385497414281	0.111896346092762	-71.9433309540428
7449.463	0.0518564945889158	0.0108730754115563	0.0529841466851703	-11.8420120309008
6363.206	0.0377000788201024	0.0856695748292459	0.0935979272979146	-66.2474429210883
5414.761	0.0516800349800889	-0.0136142882709022	0.0534431928375022	14.7583672081167
4620.567	0.0128392782623856	0.0456159580742407	0.047388423663695	-74.2799674341453
3941.215	0.0722991601534432	0.029917305038283	0.0782445761675971	-22.4797126130603
3361.769	0.0229605576073133	0.0450527822340812	0.0505661981235518	-62.9949334054691
2867.244	0.0216903963464584	0.0339032551013623	0.0402480310094109	-57.3899737746018
2442.658	0.0709048459977915	-0.0337879870787395	0.0785437792368282	25.4790034311214
2083.003	0.0386937091992368	-0.0684807976855896	0.0786563588227281	60.5322462104378
1777.843	0.0925462666099363	-0.098043137500723	0.134823099928844	46.6520342261842
1513.548	0.155451260035218	0.0448360645909097	0.161788030875393	-16.0888955295475
1292.065	0.201625669035178	-0.163096184340889	0.259332365431777	38.969598385108
1101.762	0.155361633648834	0.105088346138541	0.187565449121549	-34.074860048351
939.101	0.152998406497252	-0.186114058093338	0.240929356888422	50.5774712130286
801.2801	0.252110233837732	-0.0270052386486689	0.25355246581366	6.11402690226306
684.3433	0.0950916602285057	0.103995791108987	0.140916813806578	-47.560831232931
582.9476	0.386198821015332	-0.0299543976906629	0.387358742375389	4.4351024261783
497.0677	0.371084955035948	-0.280139699066026	0.46495407821293	37.0499090221001
423.5089	0.408959719486081	0.531121453415724	0.670326823602163	-52.4039861793923
361.5036	0.0303741458429593	-0.609855893143573	0.610611823614344	87.1487141043426
308.1262	1.14219056040706	0.0122315923144072	1.14225605191373	-0.613550709000252
262.7298	0.0528332572364476	1.34502469798228	1.34606195669165	-87.750548972348
224.2111	0.321371741706026	0.228256075960738	0.394183501151632	-35.3844868694154
191.2854	0.48344405482223	0.786166535419805	0.922917101129315	-58.4110418613045
163.1722	0.721389553686586	0.811999295443744	1.08616101199098	-48.3817422434826
139.1537	1.54502622382014	0.692376414639594	1.69307150818892	-24.1387004497057
118.6706	0.149831753892455	-1.59230179729222	1.59933566462282	84.6244339463348
101.1982	0.97016002062227	-0.642560107575787	1.16365542900878	33.517458057358
86.24196	1.85103478254539	-0.834553148404859	2.03047007456533	24.2685957114398
73.61024	1.44013066614146	0.83399143918705	1.66418690542809	-30.075482858045
62.69291	1.83373124061922	-0.847859262575169	2.02025631838077	24.814326552146
53.57697	1.07023798837316	-1.08722824943439	1.52560631164307	45.4512006312593
45.65746	2.25211687639422	-0.472875190724739	2.30122605820085	11.8580892266322
38.96512	0.573499063981914	-0.686386266048211	0.894442442311262	50.1200961939095
33.18414	3.05904283021928	1.13507640057082	3.26284254481408	-20.357677475124
28.30617	2.74774162535886	0.234054179789305	2.75769204205375	-4.86873407426716
24.17237	2.70880270341211	-0.47915559928011	2.75085480793411	10.0311903785458
20.61345	-0.857018117709308	-2.47414618353827	2.61837342478093	109.105545433567
17.55618	0.576631364519308	1.5650171316647	1.66786760654178	-69.7736543754414
14.98558	1.8287505647046	-1.42866987708071	2.32065211645029	37.9979249899236
12.76553	1.28343019241396	2.20177507214728	2.54853026804253	-59.7617898633254
10.8809	1.00496655437286	-1.94849026976014	2.19238958827076	62.7168196917126
9.278505	1.64541742957625	-1.22211046304543	2.04962252657372	36.6025951418636
7.923394	4.53656075423291	-3.39574442605971	5.66669777595046	36.8158958698349
6.75822	0.6393300765675	1.71166249910652	1.82716486876565	-69.5186308608287
5.761429	0.936515648357396	2.32043649998207	2.50229636735285	-68.0212629590338
4.919708	2.05922716518769	3.4792659514079	4.04298257212089	-59.3805437464453
4.191257	2.0400594205537	0.25392885941493	2.05580210745919	-7.09518847853484
3.564097	3.3465747658982	-0.896028072714301	3.46445218914025	14.9890743939041
3.051758	1.07302216998163	0.865092050052739	1.37831811724889	-38.8764583659315
2.604164	3.53955927836521	0.699237785717894	3.6079652667448	-11.1748599742505
2.214424	1.0484246152313	0.404876872821521	1.1238858731956	-21.1153855112948
1.892567	1.4373829541474	0.276637292861247	1.46376157507809	-10.8938872010963
1.607507	2.32708471555598	-0.536219971919727	2.38806514393134	12.9759241553545
1.376413	6.07636424107597	-0.970281729973394	6.15334453982116	9.07247155910926
1.17375	0.0736240481925001	0.70326245970411	0.707105782539873	-84.0235158108016
1.001604	0.879888517608718	0.335795619341525	0.941786866222197	-20.8885687089363
