EC-Lab ASCII FILE
freq/Hz	Re(Z)/Ohm	-Im(Z)/Ohm	|Z|/Ohm	Phase(Z)/deg
6999984	3.52243365952274	2.72061439995708	4.45076191218904	-37.681342889802
5969734	6.31423601010172	2.79841066709069	6.9065677910922	-23.9024756803512
5091109	9.86430801573129	2.41390865701071	10.1553693991707	-13.7507006042422
4341796	6.72460011748716	-7.84197375411776	10.330382330794	49.3864581147122
3702781	1.30828997543485	-7.52549763540907	7.63837268797294	80.1378306357833
3157797	3.79227549849756	-16.2195200988665	16.6569560752869	76.8401147501284
2693047	0.642892884426115	-0.305396075378223	0.71174294777128	25.4093145744996
2296687	3.49066244184221	-2.59058403666306	4.3469356947051	36.5808399343824
1958656	-7.66504139987745	-10.7241593388267	13.1818228324606	125.555106435993
1670375	18.5015155498115	0.520757337607044	18.508842909393	-1.61226370141027
1424531	13.6672874729258	-5.51766106607215	14.7390410308012	21.9845682160862
1214875	40.5159791975845	-17.1926850247233	44.0128729884615	22.993615648247
1036062	6.6071229842759	4.23274357575464	7.84666759251589	-32.6449808452446
883578.1	11.1886259082206	-3.2319763237125	11.6460731867503	16.1120315653149
753531.2	-2.75851663924791	7.92091004110279	8.38750439214494	-109.201057498015
642624.9	2.10025048516247	-15.2625417413725	15.4063698679333	82.1648407233972
548046.8	-0.201093984720246	16.2142375282935	16.2154844952167	-90.7105635335529
467390.6	7.02622150356075	-1.22581730446961	7.13235001111391	9.89640205724124
398593.7	4.17437096237433	-4.80775325613394	6.36709229581137	49.0335848678471
339937.5	0.870463389702537	-8.10705423620703	8.15365162989043	83.8715674035329
289906.2	3.04768002640045	3.85235077819746	4.91212378321219	-51.6516983239635
247234.4	6.75056406865228	-5.4888493248521	8.70043574517441	39.1143848199376
210843.7	6.79709155521995	-7.25405587265938	9.94091445560751	46.862687889142
179812.5	15.0007083214781	-0.107541320260412	15.0010938028407	0.410751151498107
153343.8	39.4380129548431	28.4050143731266	48.6024866376598	-35.7631145691717
130781.2	-11.0028186014295	-322.210345971237	322.398153015926	91.9557727097107
111531.3	661.512083610619	116.792065204229	671.742974103587	-10.012569250204
95109.37	15.5278445559741	879.108925857939	879.246050590876	-88.9880805140511
81109.37	377.643585832742	-217.982641079174	436.04026159572	29.9943119272088
69171.88	82.6257433236337	-287.308951243756	298.953921072412	73.9555587305422
59000	165.162598935219	70.6825519813878	179.651627439435	-23.1688605194657
50312.5	0.588355553803952	3.65813102884998	3.70514303123739	-80.8630806128599
42906.25	5.09998439045211	1.13516276224095	5.22479045317931	-12.5484288852515
36593.75	2.08496931481982	-1.75952694300429	2.72819209494094	40.161362058136
31203.13	-1.51349518166422	21.2169340733143	21.2708476355854	-94.0802429182763
26609.38	4.13720831498906	-7.40236393206262	8.48006393987193	60.7990153598507
22703.13	2.60312626023145	4.72192373288827	5.39192266876298	-61.1327059797349
19359.37	6.90668910243077	-3.17977075101632	7.60350553275624	24.7208714061822
16500	0.105627653391563	6.05173913259969	6.05266088015837	-89.0000553319693
14112.02	3.88419882035595	-5.62964038258179	6.839579761451	55.3960691883907
12011.13	4.22516869854991	2.51940411568621	4.91929340752741	-30.8069838046665
10236.38	3.93023535179786	-1.42734026253721	4.18139332586418	19.9594603483522
8750.684	6.30165897515957	1.43623900430411	6.46325678870131	-12.8392221550142
7449.463	8.7543294544977	3.99857034677638	9.62428433786146	-24.5487147774792
6363.206	4.43936755795352	-1.89103079429599	4.82534784026871	23.0724775591688
5414.761	0.559819519689042	0.356270951828403	0.663571311722852	-32.4728070278078
4620.567	-0.181797821330598	0.651878301513319	0.676753845814297	-105.582886317543
3941.215	-0.616257939927788	0.0453064713680306	0.617921131595176	-175.795254476716
3361.769	-0.617361670487801	0.0261619313711348	0.617915753837492	-177.573428993905
2867.244	-0.614731984960105	0.0315798721197096	0.615542607506651	-177.059199372775
2442.658	-0.613056513824648	0.0288248479337058	0.61373378675223	-177.3080349432
2083.003	-0.614369906957342	0.0300627491216236	0.615104992224516	-177.19860000433
1777.843	-0.60932586984813	0.0281364944496573	0.609975145383888	-177.356163397991
1513.548	-0.607351690391028	0.0275474795606434	0.607976101052486	-177.403031345633
1292.065	-0.608606200170549	0.028171572263225	0.60925786360934	-177.349746270686
1101.762	-0.603991915054173	0.0259674931703717	0.604549869036758	-177.538192089504
939.101	-0.602486790284451	0.0272344541814561	0.603102021188639	-177.411797599898
801.2801	-0.599876399218236	0.0257959631985045	0.600430783734791	-177.537676427489
684.3433	-0.598711363393402	0.025320005978286	0.599246526363838	-177.578356430943
582.9476	-0.595996849528101	0.0247216025022774	0.59650934802206	-177.624766012348
497.0677	-0.594751994648229	0.0243625531487547	0.595250761556819	-177.654330634577
423.5089	-0.583264384506842	0.00677996850517293	0.583303788953129	-179.334013706783
361.5036	-0.590253689163287	0.0339756513473283	0.591230718463905	-176.7056271174
308.1262	-0.141453115989883	0.585899546036841	0.602733159921888	-103.573122259563
262.7298	-0.589553029567648	0.0216242681187157	0.589949475501133	-177.899384683555
224.2111	-0.588496529520713	0.0213362515750959	0.58888318102082	-177.923620798289
191.2854	-0.585615226011879	0.0219583524182392	0.586026758926474	-177.852631327472
163.1722	71.825789628946	47.0923579073823	85.8873345092197	-33.2507290149908
139.1537	-0.582367746448892	0.0197980230321384	0.582704173504825	-178.05293737265
118.6706	-0.582983537909812	0.0198895801430229	0.583322724460574	-178.046004583329
101.1982	56.7631728941142	7.93181781045058	57.3146711652897	-7.95473403321215
86.24196	-0.577534587485329	0.0190711440484447	0.577849381999467	-178.108686166116
73.61024	-0.58281766564755	0.0148234636951949	0.583006146165529	-178.543045470605
62.69291	2.54672700448104	10.7444921556537	11.0421886471051	-76.6654772141725
53.57697	-0.574880979940224	0.0193783249417481	0.575207493496547	-178.06938126137
45.65746	-0.575555202161212	0.00449555372530373	0.575572758856889	-179.552482514066
38.96512	137.230185239038	-24.9945526836751	139.487818122579	10.3224706624344
33.18414	-0.573342059217896	0.017061187555277	0.573595851614195	-178.295527703108
28.30617	-0.571299247785359	0.0228513785097986	0.571756080877078	-177.709449174469
24.17237	81.1071284520975	15.0555261694919	82.4926369683095	-10.515849647869
20.61345	-0.565337023808639	0.0195960091875097	0.565676545443495	-178.014778383494
17.55618	-0.56759052432158	0.0130265896015759	0.567739989199541	-178.685253595356
14.98558	35.026324264625	-12.8771372415711	37.3184144227608	20.185532305577
12.76553	-0.56213959263852	0.0160397501086674	0.562368380330322	-178.365600441453
10.8809	86.5872502262363	40.6104234378379	95.6376410914727	-25.1271214012418
9.278505	51.7604119865676	1.82495353334413	51.7925738346539	-2.01928145991531
7.923394	0.041137814422286	72.3840761381986	72.3840878280601	-89.9674372732682
6.75822	47.6818646967195	17.1461439641266	50.6710022971208	-19.7783140118436
5.761429	19.5054830554118	-51.8441407965447	55.3920463979885	69.3820377224695
4.919708	0.0361406981084172	-36.6788831884461	36.6789009936466	89.9435449332113
4.191257	44.7018365673972	89.6952807494741	100.217251914155	-63.5095068012761
3.564097	22.2649475497658	-21.4681274604269	30.9290864082817	43.9561818564245
3.051758	35.6179869014008	31.1593748595789	47.3238590200347	-41.1801268545022
2.604164	71.8564907907331	-17.5269326214004	73.9631572870832	13.7076829329838
2.214424	52.5964717851953	-48.3155725614733	71.4197689452566	42.5708501218894
1.892567	33.2244855933366	7.41302586402394	34.0414364474021	-12.577781513096
1.607507	75.0473997624366	-11.3027989908729	75.8937775850632	8.56487678924696
1.376413	75.2855236065313	6.54272154964739	75.5692878753386	-4.96683590794946
1.17375	43.4317180049756	-1.37967057620715	43.4536260830161	1.81947045027256
1.001604	29.0664249566745	-28.1050945537793	40.4320837904611	44.0366709674844
