EC-Lab ASCII FILE
freq/Hz	Re(Z)/Ohm	-Im(Z)/Ohm	|Z|/Ohm	Phase(Z)/deg
6999984	6.84322463486173	1.93509727026046	7.11156275712645	-15.7896110252609
5969734	4.36331805210194	-0.0332430355440819	4.36344468547624	0.436513854981487
5091109	2.33288503898479	-0.833700827331891	2.47737959840897	19.6653152754879
4341796	1.32265171929119	-1.05766670649877	1.69353666407902	38.6477966394728
3702781	0.624618577929628	-0.724700412780425	0.956733534574256	49.241981077092
3157797	0.338821155297515	-0.549962767624858	0.645955742331266	58.3636009558676
2693047	0.221420307247157	-0.365616964252805	0.42743738373107	58.8005958662139
2296687	0.156451145860279	-0.201749098900725	0.255303074694076	52.2073585232593
1958656	0.138468308263329	-0.100605795081742	0.171157817225325	36.0007258963904
1670375	0.137515180349272	-0.0351534410773853	0.141937272222887	14.3396095443895
1424531	0.142825280945758	-1.21617426640094E-05	0.142825281463551	0.00487880380751658
1214875	0.148851568718262	0.0197625383522234	0.15015774183175	-7.5627449576734
1036062	0.155929880324546	0.0281791722010698	0.158455650968859	-10.2437577205393
883578.1	0.159267049864921	0.0316104143946806	0.162373678503872	-11.2258532180171
753531.2	0.16185847231796	0.0304180101098485	0.164691895368736	-10.6434358896887
642624.9	0.164250647420477	0.0287133486073832	0.166741511227093	-9.9159169997434
548046.8	0.164482453286256	0.025210453329844	0.166403258370026	-8.71398905542976
467390.6	0.164630992902273	0.0216877660435728	0.16605337400953	-7.50468141471484
398593.7	0.164304529079232	0.0189668549792302	0.165395646447394	-6.58491799576928
339937.5	0.163623327632765	0.0170990538470559	0.164514348882046	-5.96590012348789
289906.2	0.163498881218682	0.0149508587865005	0.16418103525747	-5.22477806957058
247234.4	0.163476693448566	0.0137302306227176	0.164052273784393	-4.80094285386287
210843.7	0.163402414652939	0.0125278415421579	0.163881957298894	-4.38421288777257
179812.5	0.163885529603648	0.0115501193074473	0.164292032884995	-4.03135453781007
153343.8	0.164108401082924	0.0103420505021503	0.16443395426305	-3.60599009774715
130781.2	0.164810935495729	0.010484721705367	0.165144100252526	-3.64006103303461
111531.3	0.16597936519961	0.00972402560566467	0.166263965867668	-3.35288369991693
95109.37	0.166973781733717	0.00870655745341147	0.167200621796537	-2.9848855131759
81109.37	0.167797178333922	0.00776648898858555	0.167976818067362	-2.6500426751657
69171.88	0.168568510370762	0.00689982205257745	0.168709662535893	-2.34391419001628
59000	0.169019505729165	0.00608400154485034	0.169128969699839	-2.06152048153015
50312.5	0.169288058649429	0.00536664361067956	0.169373101952278	-1.81573992206847
42906.25	0.169586395942031	0.00481151697023376	0.169654638557754	-1.62516384616764
36593.75	0.169800038304056	0.00424085463486816	0.169852988952485	-1.43069795979568
31203.13	0.170016368172269	0.003825529153518	0.170059401738901	-1.28899174607274
26609.38	0.170230303354105	0.00344199456795822	0.170265097734787	-1.15834189892244
22703.13	0.170457482211251	0.00310361170208722	0.17048573443956	-1.04310003279881
19359.37	0.17063417096548	0.00277136988517899	0.170656675205271	-0.930492626617179
16500	0.170782557871146	0.00247516777226041	0.170800493349733	-0.83033502036595
14112.02	0.170913981816321	0.00219136891863567	0.170928029527188	-0.73457601110794
12011.13	0.171038243430772	0.00195066284888807	0.171049366562505	-0.653420550132225
10236.38	0.171150063435157	0.00169834615807015	0.171158489691662	-0.568535420389106
8750.684	0.171220722179369	0.00151461674937801	0.171227421190422	-0.506824657289864
7449.463	0.171306995685753	0.00131470764458904	0.171312040519835	-0.439711876210789
6363.206	0.17139441499758	0.00114411242026538	0.171398233612814	-0.382461933321317
5414.761	0.171436357582717	0.00103326681016885	0.17143947136389	-0.345324126843866
4620.567	0.171449554515223	0.000877322057198171	0.171451799166589	-0.293184852895402
3941.215	0.171497023115277	0.000790767744881961	0.171498846209029	-0.264187286996493
3361.769	0.171539947130177	0.000674122183716031	0.171541271716583	-0.225161298105188
2867.244	0.17154428657508	0.000602517303795615	0.171545344686629	-0.20123990908802
2442.658	0.171589008318967	0.000528096696981025	0.171589820974346	-0.176337730917146
2083.003	0.171622172229008	0.00046265433746847	0.171622795833302	-0.154456014354864
1777.843	0.171642255027477	0.00039912079825279	0.171642719065881	-0.133229990693329
1513.548	0.171638510675727	0.000343705375575714	0.171638854809646	-0.114734397404491
1292.065	0.171662520023256	0.000277931990858906	0.17166274501745	-0.0927652474826716
1101.762	0.171685355971219	0.000231173269726828	0.171685511607837	-0.0771483660439088
939.101	0.171693507876867	0.000203447630604741	0.171693628414109	-0.0678924047509089
801.2801	0.171685997960571	0.000195863076849524	0.171686109682939	-0.0653642284798941
684.3433	0.171689295540523	0.000138173497441439	0.171689351140705	-0.0461109500731966
582.9476	0.17170552675709	7.83979158239279E-05	0.171705544654688	-0.0261603075453114
497.0677	0.171692383659309	5.01395857639449E-05	0.171692390980479	-0.0167321724348747
423.5089	0.171677260115524	5.18883032122909E-05	0.171677267956971	-0.0173172654761064
361.5036	0.171652789188574	1.89678221006077E-05	0.171652790236557	-0.00633124666155306
308.1262	0.171623488873083	7.0161982045154E-06	0.171623489016498	-0.00234232824283935
262.7298	0.171636212232352	3.54173555262487E-06	0.171636212268894	-0.00118230585870379
224.2111	0.171607067057819	1.81229934016836E-05	0.171607068014781	-0.00605086403492784
191.2854	0.171589419568996	1.47521841811226E-05	0.171589420203146	-0.00492593245095507
163.1722	0.171563597056341	1.6410154184099E-05	0.171563597841161	-0.00548037339606285
139.1537	0.171593167072453	-5.92800340623529E-06	0.17159316717485	0.00197938870047153
118.6706	0.17160377725239	-1.99862629280464E-06	0.171603777264029	0.000667309620043992
101.1982	0.171574410260314	6.62890259302508E-06	0.17157441038837	-0.00221366426740698
86.24196	0.171588726080383	5.29988329066457E-06	0.171588726162232	-0.00176970219027191
73.61024	0.171573785753029	-9.42585202166848E-06	0.171573786011946	0.00314769261657791
62.69291	0.171571207559906	9.76829690740512E-06	0.171571207837982	-0.00326209853727845
53.57697	0.171550988013324	1.41578629014993E-05	0.171550988597538	-0.00472854046912337
45.65746	0.171571029765088	9.34491296327798E-06	0.171571030019582	-0.00312071375287859
38.96512	0.171556501634461	3.67711294773772E-05	0.171556505575191	-0.0122806799780089
33.18414	0.17154518934192	1.79589973197396E-05	0.17154519028198	-0.00599827223891278
28.30617	0.171532254777357	7.66297706469989E-06	0.171532254948524	-0.002559613319318
24.17237	0.171534356011406	4.77369992375976E-06	0.171534356077831	-0.00159450773933917
20.61345	0.171519096655683	7.87350180834313E-06	0.171519096836397	-0.00263013525657388
17.55618	0.171547922969822	8.04098123856646E-06	0.171547923158275	-0.00268563022973686
14.98558	0.171507655577468	3.58508455273743E-06	0.171507655614938	-0.00119767373268479
12.76553	0.171502478613695	1.99883910197087E-05	0.171502479778505	-0.00667774861773638
10.8809	0.171526655954102	1.16878315006013E-05	0.171526656352307	-0.00390413613489481
9.278505	0.171502229329604	1.08602037545395E-05	0.17150222967346	-0.00362819679597084
7.923394	0.171498284427762	2.13764380728597E-05	0.171498285759997	-0.00714164389656405
6.75822	0.171509458888032	3.51458555278221E-06	0.171509458924042	-0.00117410969744444
5.761429	0.171491928476177	4.56195111103152E-06	0.171491928536854	-0.00152415654350624
4.919708	0.171469545884583	-4.74225606924635E-07	0.171469545885239	0.000158460359089254
4.191257	0.17148579018729	1.15746563577955E-05	0.171485790577913	-0.00386725312274886
3.564097	0.171482042750753	5.41694110579405E-06	0.171482042836311	-0.00180991466016537
3.051758	0.171492887552069	-4.82467628774122E-07	0.171492887552747	0.000161192451039556
2.604164	0.171489458741803	1.3868623512029E-05	0.171489459302592	-0.0046336002165546
2.214424	0.171480028895256	1.70077545188507E-06	0.17148002890369	-0.000568271745211787
1.892567	0.171483280864188	1.06566244379188E-05	0.17148328119531	-0.00356057803586288
1.607507	0.171460665368014	8.00623232349914E-06	0.171460665554936	-0.00267538517140213
1.376413	0.171468808090166	-5.47810091307597E-07	0.171468808091041	0.000183049072050411
1.17375	0.171468876854549	1.2550580444032E-05	0.171468877313865	-0.0041937365065281
1.001604	0.171455868825297	-2.09296693453042E-06	0.171455868838071	0.000699411299389581
