EC-Lab ASCII FILE
freq/Hz	Re(Z)/Ohm	-Im(Z)/Ohm	|Z|/Ohm	Phase(Z)/deg
6999984	37.0701629713061	68.2323551447297	77.6521169789705	-61.4850750237404
5969734	43.5899848999592	63.9880209351601	77.4245026253133	-55.7364863327897
5091109	45.7755655838083	61.8978026432378	76.9853257223657	-53.5157935921098
4341796	51.2497398876228	60.3584059789491	79.1812667925226	-49.6657349327929
3702781	58.395793012958	56.9421052022378	81.5626874647651	-44.2778976583904
3157797	63.5551745992298	54.7618036800997	83.8934762698291	-40.7495662601953
2693047	69.0029410761821	52.3612083589867	86.6204480361091	-37.1921629834752
2296687	75.7373924582917	49.8005820825057	90.643535854123	-33.3266344636897
1958656	81.0767982325772	46.2620689950684	93.3468062621883	-29.7088930015644
1670375	85.8369477191027	42.5250839907279	95.7933419510481	-26.3545975336403
1424531	89.786879774494	38.6639419269687	97.7577832449746	-23.2976327839213
1214875	93.2303629136018	34.8096156417871	99.516882538245	-20.4742285498095
1036062	95.8170808905695	31.633560455933	100.903890596493	-18.2703979570404
883578.1	98.0456257641212	28.112116843706	101.996254072943	-15.9989125078222
753531.2	99.7664200325874	25.1787937936218	102.894655949764	-14.1643761323266
642624.9	101.279135798046	22.5107954047028	103.750659071407	-12.5311370189944
548046.8	102.597832168536	20.1216762632055	104.552364972411	-11.0961183844657
467390.6	103.25030622896	18.1163452751857	104.827609447624	-9.9518414534981
398593.7	104.486044835749	16.6619236227618	105.806206170663	-9.06041652709971
339937.5	105.025527809117	16.0897223969588	106.250838389138	-8.70989240719458
289906.2	105.715565145755	15.0889603399823	106.786972230829	-8.12305757426568
247234.4	106.392178708386	14.1539594410655	107.329540473145	-7.57788823219871
210843.7	106.676210517846	13.9534514363975	107.584909245841	-7.45208961869978
179812.5	107.35791937733	13.7038163090108	108.229004589622	-7.27424351909118
153343.8	107.781947383608	13.6068714731102	108.637448115687	-7.19520972083083
130781.2	108.237680673685	13.9324234435154	109.130692019377	-7.33481661719241
111531.3	108.824650184953	14.4743643378921	109.783021049994	-7.57623238417078
95109.37	109.416253267778	15.3143662204776	110.482787310483	-7.96760266529079
81109.37	110.165028560489	16.4688479899064	111.389211649279	-8.50232698675253
69171.88	110.918079645834	17.5930731064586	112.304659803807	-9.01278654559049
59000	111.796565207432	19.0088028395147	113.401087197483	-9.64973226728152
50312.5	112.715379176734	20.9025844249845	114.637143799898	-10.5059088301235
42906.25	113.565784091878	22.9336816824142	115.858280118053	-11.4168716173358
36593.75	114.769712285743	25.483263137769	117.564805780901	-12.5187611306196
31203.13	115.82761132811	28.2370523967102	119.219825004192	-13.7006183633698
26609.38	117.166277181027	31.6487941931808	121.365492139832	-15.1159100610122
22703.13	118.551797995527	35.4170640979479	123.729128491598	-16.6333887814162
19359.37	120.152184322503	39.7078725556093	126.54352034127	-18.2876783641415
16500	121.903998118893	44.7083259655603	129.843826068142	-20.1405264707694
14112.02	123.742511580734	50.2101634679553	133.541265861107	-22.0855061908544
12011.13	125.909847966187	56.7941426004926	138.126262704068	-24.2787026869459
10236.38	128.250536465995	64.253039217082	143.445645289243	-26.6106982089079
8750.684	130.774956431206	72.508910380815	149.531372341047	-29.0064238264222
7449.463	133.787302498149	82.3992644379465	157.126322077639	-31.6288115476903
6363.206	136.928330247413	93.3767554472057	165.736495927095	-34.2915985230931
5414.761	140.786398734555	106.300707985067	176.410460536702	-37.0546130055982
4620.567	145.389706757532	120.645580769081	188.927295513777	-39.6861680515884
3941.215	149.80978800557	137.661428909097	203.454273957487	-42.5801549564824
3361.769	155.399106050082	156.801877154929	220.761660712349	-45.257437764102
2867.244	161.890116283992	178.549796293909	241.015434167692	-47.8015766392891
2442.658	168.954488985408	203.851270753123	264.765858705354	-50.3476349230899
2083.003	177.331494518851	232.497126521579	292.406177754644	-52.666309176315
1777.843	187.085127903104	264.8516661762	324.264167244594	-54.7634951346765
1513.548	198.684210302211	302.269960771026	361.721639673286	-56.6827948863837
1292.065	212.445324214463	344.168445574997	404.456344628315	-58.3141546981478
1101.762	227.884846622631	392.260637944974	453.651751237905	-59.8454417014145
939.101	246.321636723117	446.745882030199	510.153145466041	-61.1290390498461
801.2801	267.267095637629	508.795407772653	574.721208396831	-62.2873305284825
684.3433	292.526166505749	576.996987295012	646.913503830357	-63.1158847960212
582.9476	321.851095621569	657.966475353005	732.467071233418	-63.933953935909
497.0677	356.538233036807	747.474159487321	828.152842607139	-64.4992913923646
423.5089	394.31673354068	850.62428414299	937.575255178999	-65.12937307967
361.5036	442.635871720076	960.448647420809	1057.53870816432	-65.2567415975276
308.1262	496.854656902371	1087.67689857568	1195.78659709029	-65.4489116420144
262.7298	559.964608079886	1229.8033503865	1351.28703202684	-65.5188697887999
224.2111	633.170012702716	1387.90561469389	1525.51180273533	-65.4772730528734
191.2854	718.801750010754	1562.45781643729	1719.86929269771	-65.2954162486989
163.1722	816.825488314353	1757.53943656785	1938.07862313458	-65.0731086241881
139.1537	929.924588831603	1972.62363738573	2180.82639283519	-64.7601017807081
118.6706	1060.25469042401	2216.38492964501	2456.92941797758	-64.4348909361919
101.1982	1207.56813610119	2479.32448454169	2757.76552719314	-64.0313567610813
86.24196	1375.2935312329	2772.33855468239	3094.72023918633	-63.6150456271392
73.61024	1563.62432347038	3089.93464764034	3463.03582881212	-63.158856630656
62.69291	1780.9117705332	3444.4892013067	3877.64781695581	-62.659581207979
53.57697	2014.1054898079	3824.34672307427	4322.29670225948	-62.2263105233011
45.65746	2281.21506107457	4250.66602301972	4824.11689266831	-61.7787731895244
38.96512	2576.24738435455	4714.36240274456	5372.36106845073	-61.3448149554923
33.18414	2905.56033958321	5226.13232927004	5979.52673796183	-60.92735790596
28.30617	3266.15248568512	5788.72160142013	6646.58181612888	-60.5671393401613
24.17237	3660.99299855658	6392.92537790049	7366.97798441698	-60.2018214499859
20.61345	4103.96155139407	7069.15618033416	8174.07300660311	-59.862916914166
17.55618	4580.55083284633	7826.01005417939	9067.95893795324	-59.6596314884536
14.98558	5102.86189983747	8647.86689992126	10041.1553860881	-59.4563460627411
12.76553	5677.48767640974	9565.37249807193	11123.4085307812	-59.308924022054
10.8809	6304.89928516273	10573.9482663928	12310.9762787684	-59.1937595052327
9.278505	6978.27467405997	11710.6661798405	13632.1685656497	-59.2096877319373
7.923394	7681.03335993581	12943.6384644724	15051.1145824957	-59.3141952337692
6.75822	8515.94427524904	14369.9596043125	16703.8033372259	-59.3481143352409
5.761429	9418.95743456743	15943.6640583893	18518.0231871808	-59.4268960320714
4.919708	10380.886700205	17656.3033654392	20481.890957988	-59.5469306901513
4.191257	11405.0540251293	19716.4794877073	22777.5069027604	-59.9526421048835
3.564097	12626.3623064402	21972.5644098753	25342.0325120069	-60.1165080342909
3.051758	13842.2580150807	24432.6792016151	28081.3803066213	-60.4664133597773
2.604164	15320.4895682505	27229.0419973936	31243.2093214941	-60.6356077966794
2.214424	16933.163874754	30517.9401639711	34900.9557270427	-60.9758874312076
1.892567	18680.7168855842	33957.853314047	38756.9991750869	-61.1841575897377
1.607507	20750.6319854241	38095.3138775441	43380.1990224009	-61.4227372156301
1.376413	22886.049269276	42482.514350758	48254.898991896	-61.6879020832167
1.17375	25421.5189275745	47481.6561227608	53858.7160332025	-61.8355533070219
1.001604	28270.535318998	53166.4329868652	60215.3864371021	-61.9987889828547
