EC-Lab ASCII FILE
freq/Hz	Re(Z)/Ohm	-Im(Z)/Ohm	|Z|/Ohm	Phase(Z)/deg
6999984	-12.9334881766602	31.6013094812525	34.1455396405695	-112.257844630817
5969734	-13.5929179479365	32.7535092258367	35.4620894046911	-112.53876583777
5091109	-14.4285041521876	36.1403838120887	38.9141243529233	-111.763611236737
4341796	-14.5393972886234	42.0779147379543	44.5190406703803	-109.061828753798
3702781	-13.761853850197	49.1237519697504	51.0150137604582	-105.650036971133
3157797	-12.5592396745597	57.1412666704259	58.5052036822688	-102.396095061026
2693047	-13.0488595666734	66.1669001213318	67.4413182526637	-101.156214392362
2296687	-12.4134224055457	77.0791513123164	78.0723294314027	-99.1487994613421
1958656	-12.2885434735659	89.4703339510915	90.3102926471925	-97.8205114048903
1670375	-11.7291422526401	104.58975148999	105.24537469514	-96.3986593404937
1424531	-11.5916467067433	121.88279286274	122.432763055465	-95.4327670894621
1214875	-10.4450162147794	141.702779074895	142.087212518494	-94.2156901410452
1036062	-10.0446804694244	165.892026618589	166.195848628524	-93.4650008378648
883578.1	-9.35587597170717	193.666540711052	193.892396463048	-92.7657631446872
753531.2	-8.29352144732027	226.227567370783	226.379536920852	-92.0995278205091
642624.9	-6.60559978450765	264.426355335656	264.508849274673	-91.4310006651504
548046.8	-5.12886628398545	308.889716539291	308.932293962743	-90.9512631032874
467390.6	-3.39762414305397	360.377731292474	360.393747256148	-90.540165885281
398593.7	-0.98905527378178	422.370407544227	422.371565566872	-90.1341679916513
339937.5	1.35992613034781	492.845820734642	492.847696976137	-89.8419022203551
289906.2	-100.800672766625	502.013585618446	512.033608052922	-101.353598352785
247234.4	-106.112453620332	603.856478606281	613.108880679529	-99.9665248265528
210843.7	-111.625838478001	723.188987562851	731.753127460415	-98.7744861337831
179812.5	-115.369397318208	861.40947578408	869.10090484832	-97.6282840646239
153343.8	-113.286040709096	1016.47681290717	1022.77017858239	-96.3593544357477
130781.2	-109.876976733943	1208.03329205189	1213.01994407426	-95.1970522525453
111531.3	-69.6870833173984	1411.79275033721	1413.51160571323	-92.8258664173964
95109.37	-95.3205306045189	1672.25221425715	1674.96670762217	-93.2624029615066
81109.37	-80.6701229850193	1962.54750991257	1964.2047748151	-92.3538064899881
69171.88	-84.3383988063038	2312.29866364263	2313.83622484322	-92.0888708055196
59000	-72.5797093103581	2695.80790071783	2696.78476185554	-91.5422117731853
50312.5	-79.0094426861647	3148.04480109895	3149.03613217755	-91.4377042713534
42906.25	-6.07739162566432	3724.63445085639	3724.63940901602	-90.093487988197
36593.75	33.5581799263948	4330.936115544	4331.06612606681	-89.5560535763643
31203.13	-665.449186395735	4796.03325376512	4841.97868550612	-97.8993503975003
26609.38	-682.182977284997	5652.51875564376	5693.53509670414	-96.8815481702299
22703.13	-638.650476802678	6662.97818835856	6693.51572569022	-95.4751086705223
19359.37	-639.788727800744	7875.90734160346	7901.85080027105	-94.6441479802441
16500	-638.561320305917	9323.77079021209	9345.61192796936	-93.9179239749158
14112.02	-286.344361664173	10812.4402876872	10816.2312321926	-91.5170016301995
12011.13	-445.5061733298	12629.7691717305	12637.6241865973	-92.0202304616629
10236.38	-252.18066686829	14806.0080897135	14808.1555448815	-90.975785696919
8750.684	-225.335551571455	17344.9729799551	17346.4366307946	-90.7443107476861
7449.463	-290.897190416168	20232.5770549543	20234.6681578931	-90.8237226980912
6363.206	125.189839203989	23739.9811628714	23740.3112471031	-89.6978606306592
5414.761	111.641258328912	27741.4487773308	27741.6734180876	-89.769423059271
4620.567	168.292381144423	32492.8090016025	32493.2448231962	-89.7032464339334
3941.215	1331.29724487334	37326.3292801059	37350.0630505638	-87.9573294406108
3361.769	-6595.96901392268	40830.1889720504	41359.535040012	-99.1766452101855
2867.244	-6077.42607847105	48513.106078207	48892.2956005815	-97.1404677978496
2442.658	-6469.37166599395	57997.4027733592	58357.1032369499	-96.3647975348014
2083.003	-5823.88026184617	68192.599475046	68440.8372572133	-94.8814098032077
1777.843	-6092.60337807443	80399.3842672807	80629.9002013545	-94.3335475595036
1513.548	-4929.61963612248	93683.1003490096	93812.7093775648	-93.0121349965934
1292.065	-3894.27398912963	110402.909357564	110471.569937776	-92.0201731658834
1101.762	-2600.65842169534	128800.196923997	128826.449737182	-91.1567257686213
939.101	-2355.66781276303	151754.169858667	151772.452178705	-90.8893263656337
801.2801	-4472.11724161568	177295.970482187	177352.363902608	-91.4449235395721
684.3433	-257.685841391953	203114.32613551	203114.489595094	-90.0726896202338
582.9476	-3124.35103295096	240013.291019934	240033.625635237	-90.7458004379534
497.0677	-60231.8231216047	250910.984978692	258039.134434158	-103.498580450416
423.5089	-49536.2590734885	312876.996598276	316774.140300867	-98.9966791667349
361.5036	-54652.6691983698	347041.822099842	351318.85878342	-98.9495247401956
308.1262	-63530.3718628044	422879.341915528	427624.889322332	-98.5438133254635
262.7298	-24920.203909701	479248.860687042	479896.329463697	-92.9766116132953
224.2111	-57490.4964426949	570302.19468234	573192.594544558	-95.756373652152
191.2854	-79291.2607966223	703622.301106393	708075.87633881	-96.4295417656512
163.1722	36949.6099242272	780918.313730147	781791.97130227	-87.2910368206531
139.1537	57500.7851884927	886426.45713002	888289.482205757	-86.2885325665127
118.6706	727853.064973107	545838.385849975	909785.484418196	-36.8673073727919
101.1982	-28729.1811929737	666317.383606974	666936.444909755	-92.4688564152504
86.24196	437297.215856347	457268.708413517	632711.250642723	-46.278935569151
73.61024	155877.236413479	201341.018302351	254628.982016838	-52.2531378510903
62.69291	46484.6783131822	-9124.7903154032	47371.7966323857	11.1057669937357
53.57697	102822.946785973	113852.858806801	153411.315893686	-47.9141341981425
45.65746	255925.646066316	-49149.3861824015	260602.376191331	10.8710433738044
38.96512	399860.313079767	-267228.370712262	480935.829492645	33.7549777113295
33.18414	591818.366210704	-287127.341548944	657792.588016368	25.8808645694702
28.30617	628624.258141341	-199241.691351675	659443.484687223	17.585948304555
24.17237	499155.702231363	-502406.92274787	708215.455278314	45.1859899270492
20.61345	110205.514657178	615882.150829049	625664.510077621	-79.8549040765477
17.55618	13235.1101887644	1094994.86060172	1095074.84350883	-89.3075044848366
14.98558	56699.1454581456	3784118.69861986	3784543.44912832	-89.1415759073667
12.76553	1018311.76341536	1954217.39741505	2203616.22880885	-62.4766930797733
10.8809	4340158.37606681	3833986.46557199	5791064.40540356	-41.456567531497
9.278505	355761.517050747	2434276.74899908	2460136.08317341	-81.6852750488727
7.923394	1982933.97210334	-1833364.04768897	2700601.94569285	42.7555889037735
6.75822	1602014.68880017	-257897.495067764	1622640.49656532	9.14519709204522
5.761429	200966.774016868	657432.974078267	687463.278775051	-73.0024434383421
4.919708	794499.603023259	1021759.30728962	1294303.55838075	-52.1320775985571
4.191257	1722207.16286016	-453030.266713057	1780795.87105455	14.7378954260967
3.564097	-1698406.03277315	2057003.03090955	2667554.03344174	-129.545471000182
3.051758	713745.436707557	-1642818.48329919	1791168.6457423	66.5167903805793
2.604164	-2023226.56234357	13976290.1628604	14121973.3903956	-98.2369944261709
2.214424	4932367.9512324	2479307.50959423	5520436.51656958	-26.6868786773485
1.892567	2404768.04021831	-1599186.11220475	2887958.71658927	33.6241599875452
1.607507	729405.310070481	4440576.19204966	4500083.22409234	-80.6719418924043
1.376413	270041.793691148	-3639966.64482829	3649969.82806741	85.7571142115289
1.17375	7288684.03391213	-4960054.18075086	8816294.71048862	34.2358497296269
1.001604	3700011.42802547	9871691.52481907	10542313.6990275	-69.4534855595223
