EC-Lab ASCII FILE
freq/Hz	Re(Z)/Ohm	-Im(Z)/Ohm	|Z|/Ohm	Phase(Z)/deg
6999984	24.4618984764593	91.2390545666162	94.4613654108523	-74.9915237199183
5969734	29.3943854496743	82.4126612321623	87.4978664158799	-70.3700461443931
5091109	30.2951863630131	85.4593961715259	90.6703187971207	-70.4806842946328
4341796	34.5780510942781	91.0924334081094	97.4344551054161	-69.213588130701
3702781	42.2730785557375	97.2363277492507	106.027904839902	-66.5032112808347
3157797	49.2351810772336	104.154319337119	115.205144382907	-64.6992536628653
2693047	58.6062168160467	113.221285219024	127.490188156333	-62.6327667831669
2296687	71.4616737842452	123.656836715327	142.82081111129	-59.9762479660429
1958656	86.9432429603562	132.140200380517	158.177621846665	-56.6565992559903
1670375	104.799232198166	139.71373318496	174.65052622252	-53.1264458520066
1424531	124.669884818751	145.28194993616	191.440395836338	-49.3663243777913
1214875	145.777451167222	148.19707389267	207.878421148423	-45.4715750104542
1036062	166.594872027283	147.937953771911	222.799213535432	-41.6054047779381
883578.1	187.578694657038	146.044833073564	237.728542578975	-37.9035760297994
753531.2	208.824635341275	141.30577640115	252.140934339802	-34.0851102633059
642624.9	227.817456566006	130.912117691002	262.752309361016	-29.8832268698889
548046.8	243.497208143161	122.159750184532	272.422273205884	-26.6423942341345
467390.6	257.635541244394	114.380978782269	281.884870859509	-23.9395116722284
398593.7	269.801398041826	101.996087965874	288.437161866611	-20.7086656908432
339937.5	278.259444789761	93.6742519589744	293.603787602919	-18.6054751347888
289906.2	286.388574723768	83.1560776261758	298.216949515754	-16.1912372509137
247234.4	292.216089787089	75.7607261308627	301.877343890415	-14.534638648274
210843.7	297.121675562015	67.1894574618068	304.623888233985	-12.7422375890324
179812.5	301.911539277194	61.3771654243004	308.087218144873	-11.4913561307028
153343.8	304.267768221147	55.9365798656699	309.36673341739	-10.4169399436955
130781.2	307.226652085855	51.7601936926413	311.556308559115	-9.56313542612545
111531.3	310.071266640914	47.7149435405168	313.721064376263	-8.74826912031244
95109.37	311.778703539083	45.1782686211628	315.034975734628	-8.24505174800494
81109.37	313.913238644229	45.0727255840114	317.132577934971	-8.1708766318473
69171.88	315.428372688336	42.3597205244807	318.25996326859	-7.64864279031941
59000	317.290669410165	41.3869537165568	319.978513079686	-7.43162356625771
50312.5	318.903741597512	42.2925619873102	321.695907969534	-7.55440269217629
42906.25	320.736893237146	43.0923706540709	323.61876813931	-7.65210918497995
36593.75	322.52870928715	44.831217610185	325.629553921088	-7.91336075082575
31203.13	323.742973665246	47.1058288938371	327.152062676352	-8.27865572268936
26609.38	326.628586481764	50.5482298917131	330.516802980212	-8.7971653385489
22703.13	329.123871419742	54.4753676804972	333.601691276055	-9.39818087690728
19359.37	331.287118224471	59.3108383611448	336.554498185029	-10.1502166309062
16500	334.385570113659	64.9762064587468	340.64001072394	-10.9964065393791
14112.02	337.138980518786	71.7106085026843	344.681162173205	-12.0080494703518
12011.13	340.414190140657	79.4087522295901	349.553387595915	-13.1306342191957
10236.38	344.094616212784	88.5106480336502	355.295988890896	-14.425329760119
8750.684	347.494549062737	98.8584213149778	361.283059515949	-15.8804764019907
7449.463	351.586402285631	110.792800410451	368.629953876436	-17.4908143922515
6363.206	356.529224497293	124.493226432677	377.639578630549	-19.2482306485224
5414.761	361.932818898532	140.688743043258	388.315191326491	-21.241854485414
4620.567	367.584658216465	157.842386352666	400.040872768796	-23.2388874211866
3941.215	373.52038859204	179.21746559285	414.290213096415	-25.6319888919992
3361.769	380.197352520028	203.152925292444	431.06975992073	-28.1171704100674
2867.244	388.021018894123	230.97848040127	451.565465366998	-30.7642010461041
2442.658	396.93305693511	262.874298771942	476.086912908443	-33.5150573641964
2083.003	406.638680959327	299.346486028091	504.9389423977	-36.3585896056512
1777.843	417.510174763853	341.128662496159	539.150730693896	-39.2507029385551
1513.548	430.430675178835	389.688647825691	580.627082023499	-42.1559885711691
1292.065	444.428370226527	444.678597477429	628.693590962004	-45.0161251295267
1101.762	461.187101813514	508.129702976765	686.213769846105	-47.7725849748554
939.101	479.110511364075	580.866873136328	752.962951549889	-50.4835118642051
801.2801	501.419973232572	663.523733632663	831.676460319987	-52.9219285670347
684.3433	527.607618575011	761.942670134071	926.782839585106	-55.2993138055269
582.9476	556.994772018262	868.052085725362	1031.38625140528	-57.3133120216133
497.0677	590.267776743531	994.472511872532	1156.45649513149	-59.308809430495
423.5089	632.855181043725	1138.28699870018	1302.38357313955	-60.9271860186215
361.5036	678.434963734295	1297.06778690269	1463.78237584615	-62.3880565088665
308.1262	735.39904638268	1482.70467887278	1655.06039834557	-63.6192855148232
262.7298	800.328885920797	1693.73556777571	1873.30363240659	-64.7081918044693
224.2111	877.353510338853	1931.92708494221	2121.81324428829	-65.5755926105178
191.2854	968.893415010104	2204.47920510369	2408.00394837395	-66.2739708670028
163.1722	1073.33152015533	2511.8075398301	2731.52295785818	-66.8622839310431
139.1537	1199.9193369235	2861.25078645446	3102.67021742711	-67.2483428934023
118.6706	1344.86331520266	3252.68982950656	3519.75119341599	-67.5367698474711
101.1982	1516.95974997179	3696.77237774617	3995.90952048486	-67.6893485083145
86.24196	1718.93982766688	4203.40482313018	4541.2956563357	-67.7583899226277
73.61024	1952.98761069398	4751.61486494315	5137.31490491608	-67.656575322433
62.69291	2229.71216984337	5374.87772782028	5819.01425925097	-67.4693900107638
53.57697	2539.6501242976	6067.91222870534	6577.94660734766	-67.288851009518
45.65746	2904.75358075976	6843.74905703843	7434.68187084363	-67.001741858378
38.96512	3324.6831887896	7703.18538631385	8390.02880815909	-66.6550450965443
33.18414	3809.50372588789	8661.40608302782	9462.14954292443	-66.2589020769909
28.30617	4364.63175564873	9690.80568085714	10628.3453607112	-65.753725189024
24.17237	4981.1976310048	10875.2721644433	11961.7671976111	-65.3908137215882
20.61345	5682.91780813646	12165.2292186031	13427.1499863221	-64.9606370090039
17.55618	6489.95990506597	13593.1403913891	15062.9693377295	-64.4781492497243
14.98558	7371.29750285726	15148.3816837895	16846.6463877355	-64.0521551290445
12.76553	8376.18645427271	16890.0254092004	18852.9429490512	-63.6220357122398
10.8809	9471.52541052823	18808.2507204642	21058.4920819636	-63.2709271753836
9.278505	10681.3244829276	20943.7859705905	23510.2714465718	-62.9784322209693
7.923394	11975.2422903332	23341.547070844	26234.2190196814	-62.8401775050043
6.75822	13514.4081030001	25832.7154969544	29154.217813569	-62.383644733844
5.761429	15133.9104431616	28691.1625376223	32437.9107382381	-62.1894120412947
4.919708	16870.3633257822	31892.4524794869	36079.6020474205	-62.1222040919258
4.191257	18881.0101635284	35514.5445652432	40221.5790400117	-62.0030288705386
3.564097	21002.5689421273	39504.4580502737	44740.47505352	-62.002627800082
3.051758	23269.4305765376	43949.9576188105	49729.9223209884	-62.100890061947
2.604164	25779.5917927137	48879.7305137979	55261.3373716241	-62.1924487176089
2.214424	28682.4162956875	54818.9375480546	61869.1919977676	-62.3804934659708
1.892567	31610.887215779	61000.4369002871	68704.4503114217	-62.6064680203704
1.607507	35157.1134128707	68356.5880776392	76867.7159615238	-62.7823660634756
1.376413	38841.6016142208	76381.6649821131	85690.3072779973	-63.0457547618972
1.17375	43006.8744888947	85463.9955368864	95674.896323082	-63.287714838781
1.001604	47741.3843277625	95825.8868440815	107059.984900923	-63.5170698441718
