EC-Lab ASCII FILE
freq/Hz	Re(Z)/Ohm	-Im(Z)/Ohm	|Z|/Ohm	Phase(Z)/deg
6999984	37.7235128026107	64.4077317172258	74.6419407781367	-59.6425573461587
5969734	40.6722727889672	59.0219143907457	71.678589217204	-55.429094475702
5091109	43.0134584124651	56.6957122251326	71.1657318469775	-52.8134218197928
4341796	47.4605549072665	55.1409314918943	72.7531896063633	-49.2809708550507
3702781	53.411582641764	51.0935235167725	73.9144458523296	-43.7293134878644
3157797	57.2029025234946	49.0168243852613	75.3314086548762	-40.5930742976112
2693047	62.7126457138022	46.9990016233246	78.3695226858894	-36.8491446106863
2296687	68.4245578248701	44.7776805035614	81.7738392446387	-33.2011165995104
1958656	73.0622990023413	41.6735456543653	84.1117348704329	-29.6997314064203
1670375	77.3370393632275	38.3673346222009	86.3311648449234	-26.3862649109772
1424531	80.8142675606829	34.9154998899187	88.0342999854748	-23.3665767954094
1214875	83.8979851090198	31.3620516697453	89.568131555197	-20.4963332615457
1036062	86.6167196802868	28.3045920160183	91.1241244532238	-18.0963448380355
883578.1	88.1851563613849	25.4352342721025	91.7800247600677	-16.0891419013994
753531.2	89.8303709954728	22.838669289443	92.6881889352512	-14.2647755267674
642624.9	91.2621252571102	20.5476953169546	93.5466904239956	-12.6885800915184
548046.8	92.3434441340076	18.5533259810206	94.1888399943889	-11.3604180857816
467390.6	93.2203159522468	16.7848694862895	94.7193705105164	-10.207076962495
398593.7	93.9780348318194	15.4043428634359	95.232162686274	-9.30881664960073
339937.5	94.5963691608017	14.2667141287113	95.6661496582623	-8.57652502122198
289906.2	95.1416936408686	13.4106624739934	96.0821926105159	-8.02324832635389
247234.4	95.642971523976	12.7174192891422	96.4847695510122	-7.57405514454928
210843.7	96.0859432035477	12.3088116187625	96.8711274053398	-7.2999521353587
179812.5	96.5238757435196	12.1579793841311	97.2865615141956	-7.17906949974199
153343.8	96.9448026714744	12.2059661646124	97.7101856257717	-7.17614168540888
130781.2	97.4047126168459	12.4747687740957	98.20029478539	-7.29822753239535
111531.3	97.8706234436823	12.9812559543059	98.7277668105901	-7.55543401620753
95109.37	98.3586689786265	13.8227033011541	99.3251976579899	-7.9995966285709
81109.37	98.869190740613	14.1953172383195	99.8830511608464	-8.17050420928047
69171.88	99.4515070240816	15.8321462193531	100.70381871246	-9.04527898215236
59000	100.080283418631	17.2854889779345	101.562056194033	-9.79923414476501
50312.5	100.814055581859	19.0327955031831	102.59493704627	-10.6911002486656
42906.25	101.58864780526	21.0285238613284	103.742239125091	-11.6948764691112
36593.75	102.438954424157	23.416669594106	105.081300897895	-12.8760919891309
31203.13	103.433062107523	26.1704363631427	106.6925024375	-14.1988796507494
26609.38	104.535893204828	29.4442503133398	108.603484495875	-15.7307453413891
22703.13	105.734193948856	33.0872313389091	110.790273253968	-17.376383261408
19359.37	107.091736964944	37.3678594908571	113.423970346206	-19.235574010828
16500	108.601954245917	42.248098274955	116.530194687397	-21.2569232754259
14112.02	110.282938416073	47.6695251039327	120.144538491426	-23.3762941596149
12011.13	112.172385651957	54.1231550297744	124.547019286808	-25.7573004913723
10236.38	114.329848881324	61.4473636379046	129.796351425128	-28.2561126753866
8750.684	116.710011259402	69.6538584169708	135.914998144212	-30.8292317558514
7449.463	119.358969773189	79.2513502337502	143.273654867842	-33.5831591277257
6363.206	122.372067653352	90.0270336142581	151.920340057345	-36.3412805506603
5414.761	125.722726131086	102.71880478944	162.349489445465	-39.2497346398813
4620.567	129.526483577682	116.942102188011	174.506633719612	-42.0770865532016
3941.215	133.819629721204	133.226981977492	188.830935033302	-44.8728455736983
3361.769	138.668162831997	152.108381427462	205.829587483635	-47.6464311275235
2867.244	144.028830106134	173.457828762475	225.459358334786	-50.2958223496762
2442.658	150.276086447157	198.349377020886	248.848101303681	-52.8512198455376
2083.003	157.494365370618	226.795486357403	276.117126878404	-55.2225947567589
1777.843	165.680621434167	259.100109730882	307.543387477876	-57.4032663954489
1513.548	175.202912338254	296.51339264046	344.407102869499	-59.4221404823718
1292.065	186.176569611679	338.653520051804	386.455588283893	-61.1999712248833
1101.762	198.623058137667	387.396066480717	435.346794577256	-62.8551889992367
939.101	213.382292970133	443.244398073775	491.932515063779	-64.2933703607946
801.2801	229.841750782119	507.052593114092	556.713178024658	-65.615699656177
684.3433	249.679003033958	579.448892059035	630.952155923469	-66.6892506769136
582.9476	272.62428087399	662.930410327712	716.798944934582	-67.645517236987
497.0677	298.547261855819	757.856288721111	814.540742943988	-68.4987086897163
423.5089	329.21979191494	865.259404870663	925.775085593499	-69.1688401269013
361.5036	364.663934764422	989.268576015402	1054.33965153996	-69.7651173042939
308.1262	405.451735998593	1130.0092069414	1200.54650805231	-70.2618144168928
262.7298	453.285924883707	1290.06728176871	1367.38499377015	-70.6402530405768
224.2111	509.12197491578	1471.15838846151	1556.76336971385	-70.9108610072171
191.2854	572.618915428367	1676.08590865147	1771.20196349439	-71.1377522940889
163.1722	647.854604086804	1910.38769403332	2017.24979354328	-71.2670688684499
139.1537	733.874782963619	2177.50872937481	2297.85040060779	-71.3748995254935
118.6706	836.300402234926	2481.32962610982	2618.47189715463	-71.3742692719189
101.1982	954.341832028448	2823.78819888625	2980.69591279095	-71.3265418875845
86.24196	1091.40797602179	3213.01913212679	3393.32629046143	-71.2382490913548
73.61024	1246.12763816119	3647.24319341976	3854.24661931952	-71.1366063784986
62.69291	1433.77278824732	4143.56480515537	4384.61328999956	-70.9131528383976
53.57697	1638.01630274965	4696.23903217988	4973.70671184414	-70.7715749672208
45.65746	1883.89073051824	5330.28922863441	5653.40848917081	-70.5350006936112
38.96512	2163.81292952424	6034.40525724195	6410.62658424319	-70.273216277016
33.18414	2493.8268890666	6838.99520524625	7279.49366165071	-69.9657098283693
28.30617	2864.70990947286	7728.03250076543	8241.90810421463	-69.6607243940211
24.17237	3294.86416572602	8729.20863313299	9330.33832352016	-69.3208458299495
20.61345	3799.04400245581	9851.67493544149	10558.7989073664	-68.9121550346827
17.55618	4381.52003805312	11127.8832507623	11959.4106663521	-68.5083343806745
14.98558	5036.76723434069	12535.0666297855	13509.1420743913	-68.1090400932478
12.76553	5803.65454240108	14112.7333366862	15259.4773265649	-67.6458037158845
10.8809	6678.1678273341	15872.857321384	17220.4972365799	-67.1821089722852
9.278505	7679.15380767099	17828.066510481	19411.5779550247	-66.6968137198094
7.923394	8814.11233506959	19967.2867508696	21826.1567035215	-66.1820111408843
6.75822	10098.1637507325	22354.443630589	24529.4529325419	-65.6898976906465
5.761429	11555.0475971915	24988.4016081966	27530.6981369141	-65.1834029997508
4.919708	13167.0921665767	27922.2329376346	30871.0772139012	-64.7531689913871
4.191257	15079.6293429809	31179.8346994606	34634.9146528092	-64.190008774553
3.564097	17152.1100977568	34783.6342773715	38782.6777614376	-63.7516960612779
3.051758	19446.6359337925	38667.6998465469	43282.3596926521	-63.3014085300846
2.604164	21975.2105959232	42945.0106893739	48240.8936882975	-62.9009110312881
2.214424	24856.0076490258	47871.4466200426	53939.7489588524	-62.5605741009804
1.892567	28018.8506536436	53148.3024934679	60081.5949346249	-62.2025900705827
1.607507	31688.3472252455	59160.229421746	67112.4734688071	-61.8248962920325
1.376413	35494.557660991	65621.5263219496	74605.953786355	-61.5911295116191
1.17375	39745.5265569918	72891.4871017351	83023.3447482992	-61.3976989599829
1.001604	44552.4690686618	80902.8932220335	92359.0852694515	-61.1588328551929
