EC-Lab ASCII FILE
freq/Hz	Re(Z)/Ohm	-Im(Z)/Ohm	|Z|/Ohm	Phase(Z)/deg
6999984	29.0411022533313	82.90982283878	87.8488721797061	-70.696001834043
5969734	26.3629155031974	81.0787555752365	85.2570696157079	-71.9879643662835
5091109	24.797697332011	84.7000516352526	88.2554504831542	-73.6815130171312
4341796	26.1783732260487	91.873748922094	95.5305865456832	-74.0957042072313
3702781	32.1198334308163	100.186212545962	105.209129280344	-72.2240802736569
3157797	38.6037115718943	109.511255224697	116.116155499632	-70.581983232812
2693047	46.3689636820531	120.363661341499	128.986401471158	-68.9312918250401
2296687	56.7767385350193	133.468961351712	145.043309680173	-66.9554468685314
1958656	70.5482391994899	146.834948465752	162.903517902741	-64.3376027025787
1670375	87.6823790993794	160.730532164039	183.09151693692	-61.3864689871983
1424531	108.298792601322	173.511543715172	204.535777509281	-58.0292800824088
1214875	131.747648562472	184.518738714701	226.725842899756	-54.472902400142
1036062	158.406683397326	192.995710670194	249.679838357113	-50.6215946928317
883578.1	186.047033019434	198.805221085811	272.281131234451	-46.8987097457219
753531.2	215.597475614403	200.623359695255	294.50297782317	-42.9395942996797
642624.9	244.63646440057	198.649150740592	315.132487700602	-39.0772113181895
548046.8	272.816508085551	192.936877391978	334.145904870553	-35.2680962229125
467390.6	298.807277927851	184.469470103145	351.162034882456	-31.689218488031
398593.7	322.025149442023	173.762850417632	365.914915053237	-28.3510345933059
339937.5	342.639074825973	161.7608965873	378.903844348834	-25.2721312896114
289906.2	360.751338899667	148.568320599816	390.146221824269	-22.3833468414972
247234.4	374.773660361487	135.550749887894	398.533941209425	-19.8843971476121
210843.7	387.173026221718	125.409165426821	406.977162758225	-17.9476508310432
179812.5	397.053320573221	111.359069009772	412.373837226544	-15.6668834655439
153343.8	405.602165050702	101.158223621594	418.026437561183	-14.0040224342034
130781.2	412.187278806995	92.1075140210458	422.353106948975	-12.5963911822819
111531.3	417.97133238377	83.9869671527197	426.325984835754	-11.3616843225088
95109.37	422.529024303597	77.3554923514416	429.551683241823	-10.3746671175708
81109.37	425.681662821576	72.014598621666	431.730217238939	-9.60208509703844
69171.88	429.908438559721	67.3755113094753	435.155977862043	-8.90697842956368
59000	433.354219705136	63.897844145544	438.039740460492	-8.38779272350588
50312.5	436.186066200846	62.4012464643346	440.62705308239	-8.14155265189251
42906.25	438.71082357525	60.8173075901384	442.90623344517	-7.89245925045938
36593.75	441.106999518561	60.7768206646798	445.274305293237	-7.84496104924304
31203.13	444.027413702383	62.0749053418651	448.345444933289	-7.95835512647738
26609.38	446.359785662455	64.6798209337434	451.0216596713	-8.24506320716084
22703.13	448.413431370461	67.3402154441893	453.441628050956	-8.54053754210981
19359.37	452.572230617291	69.0585118889319	457.81077094169	-8.67590455078742
16500	455.486266462076	75.5002869899214	461.701237025765	-9.41163392593695
14112.02	458.567762812102	82.9655370607789	466.012524971464	-10.2551996877081
12011.13	462.129144910418	91.9221257147758	471.182580080755	-11.249871608789
10236.38	466.143559124688	102.462151177165	477.271736160108	-12.3969331146409
8750.684	470.464873104191	114.438785593754	484.183263313712	-13.6714662707535
7449.463	475.226809199156	128.586540336683	492.315974286198	-15.1405071391572
6363.206	480.453480475041	144.669645285271	501.761749406575	-16.7576060314006
5414.761	486.639936111679	163.469192700618	513.362059740464	-18.5679234808959
4620.567	493.050462788637	185.043437287953	526.630641474107	-20.5712761411488
3941.215	500.458860350119	209.813503847741	542.66083081406	-22.7454905454876
3361.769	508.890489441207	237.992103169077	561.791572929456	-25.0640158296861
2867.244	517.364700020868	270.089384005512	583.621888023538	-27.5667355858632
2442.658	527.787423388632	307.887846850057	611.027405707122	-30.2573969579991
2083.003	538.591365834959	350.572149296677	642.636360015879	-33.0603294100909
1777.843	550.915219621598	399.847648258776	680.724409014976	-35.9716941249112
1513.548	565.114196116019	457.394053085737	727.023640915515	-38.9861339470755
1292.065	581.181223617013	522.509095900548	781.528867018856	-41.9570232472319
1101.762	597.722801109875	597.295864663162	845.005856139678	-44.9795303151517
939.101	618.731804275819	684.559514402971	922.740903169488	-47.891485176501
801.2801	641.079115195129	783.468856315922	1012.32696336527	-50.7080024579153
684.3433	666.324710840065	897.464725489678	1117.77974296118	-53.4078769913969
582.9476	696.401011363513	1028.96970713041	1242.4785820368	-55.9100753559805
497.0677	730.972966268314	1179.12134889532	1387.31706283597	-58.2039749141442
423.5089	769.728722890763	1355.78550098965	1559.0499130999	-60.4148471582155
361.5036	815.413482218235	1553.71466601847	1754.68755349326	-62.3088164457999
308.1262	867.198724221777	1783.3328134699	1983.00518176084	-64.067281214836
262.7298	927.032257827603	2046.27964852722	2246.47484006156	-65.6279036572133
224.2111	996.316629265831	2346.60986686645	2549.35770205489	-66.995038252175
191.2854	1081.63467135724	2691.76124357763	2900.95021582734	-68.1081806565551
163.1722	1172.04460818566	3084.62223601042	3299.7852812671	-69.1950242981388
139.1537	1280.29809943889	3543.27273660886	3767.48522351747	-70.1335864623426
118.6706	1406.44319076023	4061.06073293316	4297.70831088005	-70.8977975694881
101.1982	1554.60263939915	4654.40764663074	4907.16821674594	-71.5303429753125
86.24196	1724.09351544416	5337.25043302658	5608.80919936122	-72.0979722629486
73.61024	1926.22174763063	6110.37293245563	6406.79230151342	-72.5031680156651
62.69291	2155.67607714813	7002.32498609843	7326.62914037057	-72.8889404991267
53.57697	2428.80990945127	8008.73090151395	8368.92395885595	-73.1290098152865
45.65746	2742.6565754593	9170.58537673101	9571.92777045579	-73.3495985664119
38.96512	3114.11373359453	10487.2643523083	10939.8545667188	-73.46161181536
33.18414	3539.34418109357	11998.9716632041	12510.0870583148	-73.5654890636172
28.30617	4043.42127185695	13747.0795420666	14329.3911774929	-73.6098359969603
24.17237	4610.11028642165	15639.4798678387	16304.798293432	-73.575859599709
20.61345	5274.23353071807	17836.2280122062	18599.6927135896	-73.5268717082254
17.55618	6052.58593844485	20376.606462115	21256.5257616142	-73.4566843783218
14.98558	6940.98670983178	23210.0940532647	24225.725220671	-73.3506871862226
12.76553	7983.98688687567	26464.2274722057	27642.3476266118	-73.2119741040215
10.8809	9174.01213706304	30154.1714347883	31518.8285570639	-73.0783030504174
9.278505	10560.7289176671	34310.7240337321	35899.2308969339	-72.8918052881024
7.923394	12084.7383270337	39013.695860045	40842.4945992892	-72.7893031385535
6.75822	13890.0131619276	44333.022998923	46458.0390660385	-72.6036648129311
5.761429	15998.8137634929	50445.4363940276	52921.6788738114	-72.4035306550919
4.919708	18369.0534680938	57087.4052538866	59969.9421705171	-72.163346747373
4.191257	20963.2983542645	64904.4218404334	68205.893090926	-72.1002067983496
3.564097	24212.2499299675	73874.1015035606	77740.6966757411	-71.8534338759868
3.051758	27599.4332181456	83501.9709791197	87944.9138458878	-71.7100225398655
2.604164	31703.6129208484	94597.283501826	99768.5577632544	-71.4717866886501
2.214424	36424.5175610643	107466.226623099	113471.297446374	-71.27646537629
1.892567	41597.2519333416	121607.087640099	128524.764667019	-71.1160944894329
1.607507	47713.9367071636	138204.531950315	146209.139275563	-70.9532025882772
1.376413	54527.8940478164	155926.23760578	165185.601077043	-70.7251080900356
1.17375	62466.7702598173	176578.520234964	187302.085399662	-70.5181557344344
1.001604	71276.1372134817	199627.14065572	211970.005006495	-70.3510812413742
