EC-Lab ASCII FILE
freq/Hz	Re(Z)/Ohm	-Im(Z)/Ohm	|Z|/Ohm	Phase(Z)/deg
6999984	21.5263832442085	1.78133219246281	21.5999611100678	-4.73051144393862
5969734	15.5963684698992	-8.59421017908611	17.8075028583789	28.8564865010144
5091109	12.2746577373089	-6.12719167733344	13.7189540570286	26.5271838806896
4341796	9.97754861987297	-6.46612786615505	11.8895872949146	32.9459727637607
3702781	6.26427083040028	-5.17741759677071	8.12691466720026	39.573719354716
3157797	4.11239079139077	-5.23569989902104	6.65765059564742	51.8520673944987
2693047	2.85568932991331	-4.56695845582829	5.38628546275095	57.9825267263261
2296687	2.34627352928141	-3.71666105778961	4.39528939805975	57.7363840575379
1958656	1.78839299607182	-3.18939792160773	3.65658428191591	60.719316930548
1670375	1.46054233209675	-2.78449953319111	3.14429985118915	62.3218225877494
1424531	1.18253429277233	-2.41478551433607	2.68878716781933	63.9087437929233
1214875	1.28992425386898	-1.96277406539487	2.34869891908396	56.6873040642313
1036062	0.825461637953376	-1.82849070470921	2.00618173975855	65.7034767903911
883578.1	0.729273723078087	-1.56685641699543	1.72825900681927	65.0409656918813
753531.2	0.649379018286828	-1.35819802063692	1.50545507161563	64.4466938667716
642624.9	0.606604637749962	-1.15776753658815	1.30705579655849	62.3480067589869
548046.8	0.554450223911504	-1.01535512589739	1.15687556914373	61.3625766471414
467390.6	0.518880181176235	-0.880324220304104	1.0218646560438	59.4840772200255
398593.7	0.488950291063839	-0.764855248281432	0.907786284295519	57.4103710721085
339937.5	0.460339745100155	-0.664493426738072	0.808371322534997	55.2870238608214
289906.2	0.439171189550538	-0.575903449430792	0.724248656745403	52.6716606021215
247234.4	0.42118654239132	-0.498159686603769	0.652350501531746	49.785981585257
210843.7	0.408853670438008	-0.430013063759117	0.593357024761765	46.4449099832445
179812.5	0.395298360634561	-0.370572025532398	0.541834310493121	43.1508323795886
153343.8	0.387740716787599	-0.3225953718616	0.504391353416655	39.7600280409587
130781.2	0.380568802734118	-0.279898303328643	0.472414726507052	36.3334997838024
111531.3	0.373798173896236	-0.244241184759773	0.446518567521014	33.1607574524214
95109.37	0.367200696914019	-0.213081828672786	0.424547073390784	30.1260406538874
81109.37	0.360601432928715	-0.185638810461338	0.405580030795086	27.2395594961096
69171.88	0.352812710563536	-0.16109802957878	0.387852270677064	24.5419424163408
59000	0.34409159634319	-0.136361645117508	0.3701263634668	21.6181559765221
50312.5	0.338006027348771	-0.10647634802186	0.354380145059187	17.48511346219
42906.25	0.367437757154403	-0.10685982516142	0.382661113279344	16.2157140079217
36593.75	0.351620276105544	-0.0974090226331754	0.364863448784458	15.4842760866577
31203.13	0.345438702649715	-0.084892850365593	0.355717153552528	13.8070338146595
26609.38	0.340719915924225	-0.0733782864815083	0.348531826429629	12.1537297193418
22703.13	0.340954809913344	-0.065427317096631	0.347175627349484	10.8626896491514
19359.37	0.338058078912995	-0.0585106696639941	0.343084192557561	9.81940225915361
16500	0.33573020478586	-0.0521433195418238	0.339755347534658	8.8282540285127
14112.02	0.333474119678922	-0.0466200284700574	0.336717115024142	7.95842961099074
12011.13	0.33167307530343	-0.0417675628121716	0.334292623586736	7.17747094749358
10236.38	0.329480452263379	-0.037682744285792	0.331628342637642	6.52457981036406
8750.684	0.32907691198627	-0.0334157093125364	0.330769139478397	5.79815526980744
7449.463	0.328384262189523	-0.031128740274195	0.329856365900092	5.41509459559021
6363.206	0.325343475425968	-0.0260173652839254	0.326382107810102	4.57215163894241
5414.761	0.322972981645646	-0.0247857104824451	0.323922642489219	4.38841209545308
4620.567	0.321697288978605	-0.0233987201169443	0.322547121889647	4.1600947166292
3941.215	0.32144613605752	-0.0230747184440349	0.322273270715369	4.10588259596951
3361.769	0.320043795218888	-0.0211427722426936	0.320741403121293	3.77958886122046
2867.244	0.318617184713098	-0.0200058078557985	0.319244644030975	3.59285561325158
2442.658	0.317103939673291	-0.0193473417441165	0.317693607409539	3.49143749985106
2083.003	0.315448411748172	-0.0186449081965273	0.315998944738905	3.38259156159447
1777.843	0.31349151369669	-0.0178770680453703	0.314000825988946	3.26379621122543
1513.548	0.312245222119154	-0.0164740651064283	0.312679506135869	3.02012642828101
1292.065	0.310553566900006	-0.0153282169398101	0.310931619731526	2.82569606529234
1101.762	0.309763702034763	-0.0139166734071646	0.31007615983336	2.57238282969808
939.101	0.308565306410596	-0.01354047029842	0.308862255149715	2.51264281223097
801.2801	0.308181884548032	-0.0134014091105681	0.308473129672141	2.48996055903733
684.3433	0.307204096715569	-0.013170237807295	0.307486279698346	2.45484111098478
582.9476	0.305958114249274	-0.0129156725093876	0.306230603094043	2.41724075567932
497.0677	0.304636182281869	-0.0128861965528361	0.304908605350637	2.42218366257792
423.5089	0.303445862403035	-0.0130702926001122	0.303727219653053	2.4663707406962
361.5036	0.30258349943107	-0.0124278251383833	0.302838612078484	2.35195221492417
308.1262	0.301739632836335	-0.0117038571623766	0.301966531749271	2.22127142805293
262.7298	0.299831506296019	-0.0122789191093531	0.30008282860276	2.34510823406133
224.2111	0.299375248162699	-0.01218851912818	0.299623262132658	2.33140594839077
191.2854	0.298146564736356	-0.0138271452580952	0.298467023320967	2.65530414659838
163.1722	0.296775789953001	-0.0119183550554747	0.297015010882373	2.29973169556035
139.1537	0.295268426518442	-0.0110093917096854	0.295473603566366	2.13534380160157
118.6706	0.293750068456374	-0.0102609886163917	0.293929227205309	2.00058642001798
101.1982	0.289712488213725	-0.00799283336768228	0.289822723767878	1.58032359616291
86.24196	0.292431522008996	-0.0119432674748899	0.292675309348901	2.33873121380152
73.61024	0.274805432419701	-0.0171969381914631	0.275342986782921	3.58082006180706
62.69291	0.267803817403803	0.0107851402737707	0.268020901921426	-2.30620038906738
53.57697	0.273662296955565	0.00101476716206156	0.273664178378152	-0.212457505984209
45.65746	0.27207462496712	-0.0233106281460802	0.273071395308194	4.89699063384962
38.96512	0.293507933440756	-0.014330198944153	0.29385755323701	2.79518319791265
33.18414	0.280949559849545	-0.0168028926530776	0.281451580882332	3.42264073851632
28.30617	0.300739722563462	-0.00890925238319917	0.300871659525413	1.69686034690354
24.17237	0.290359911138399	-0.0106518310929181	0.290555226251278	2.10094914515987
20.61345	0.272248140547139	-0.0135443706307732	0.272584849188576	2.84812220635156
17.55618	0.272460361563349	-0.01130176101193	0.272694661526774	2.37528935887764
14.98558	0.281502103844716	-0.0088483277449918	0.281641132246133	1.80035944301598
12.76553	0.279935507741218	-0.00803462425505209	0.280050787681901	1.64403478410807
10.8809	0.279567763003349	-0.00845506731123126	0.279695588585044	1.73228861920766
9.278505	0.275795702512716	-0.0074715936989556	0.275896890589374	1.55182295655972
7.923394	0.270223644140834	-0.0111913891049857	0.270455292133194	2.37156570616708
6.75822	0.281460869504158	-0.00438230857697268	0.281494983419777	0.892015645885169
5.761429	0.280177582932965	-0.000354478625645398	0.280177807174756	0.0724901618737157
4.919708	0.267342850650407	-0.00425766647915015	0.267376752014332	0.91240778677167
4.191257	0.28038071936412	-0.00298747428403488	0.28039663477606	0.610467050146858
3.564097	0.264980549238863	-0.00675029696044073	0.265066516150161	1.45927652165901
3.051758	0.276261547784431	0.00182162349425632	0.27626755346295	-0.377793530502371
2.604164	0.268002858672426	0.00296390011890436	0.268019247369489	-0.633620274648094
2.214424	0.26932079398406	-0.00997698397856644	0.269505529222525	2.12155098859939
1.892567	0.278081139258049	-0.00748776146231698	0.278181930726585	1.54240410336556
1.607507	0.273118344434768	0.00407531824319322	0.27314874754531	-0.854871937942428
1.376413	0.263416151531139	0.00333337477087254	0.263437241624716	-0.725005324098075
1.17375	0.265666663557383	-0.00665057900498669	0.265749894311951	1.43401710430287
1.001604	0.263295321055796	-0.00234501594520768	0.263305763684842	0.510286181809146
