EC-Lab ASCII FILE
freq/Hz	Re(Z)/Ohm	-Im(Z)/Ohm	|Z|/Ohm	Phase(Z)/deg
6999984	-15.0823970417227	30.2896310765942	33.8369687070273	-116.470516819517
5969734	-15.105100026725	32.6586038455666	35.9826131896924	-114.821257806233
5091109	-16.9174917621017	37.2764344984259	40.9357312923101	-114.410389771344
4341796	-14.9126833220568	41.8646911689822	44.4414276383894	-109.606482433849
3702781	-16.3895181588833	49.169682294069	51.8292770775365	-108.434554559689
3157797	-14.669728484964	57.1423494880056	58.9953306527893	-104.398181484551
2693047	-14.1208962478266	66.1462876789974	67.6367583829575	-102.050601510562
2296687	-15.487384468332	76.463447396563	78.0161384934995	-101.450141741265
1958656	-14.0771007252849	89.9436971056559	91.0386369288545	-98.8952083412172
1670375	-14.7236713187264	104.197020178002	105.232150558073	-98.0429909167396
1424531	-13.6597903236333	122.601369244871	123.359983837559	-96.3574636750238
1214875	-13.6251840440467	141.927560466345	142.580075957905	-95.4836457416697
1036062	-12.1904499461441	165.977698500588	166.424768197049	-94.2006213510333
883578.1	-11.2100780859204	194.761055023307	195.083403713601	-93.2942021191363
753531.2	-10.6038999617612	227.197939066065	227.445259810502	-92.6721991367423
642624.9	-9.01194655227998	265.238716804963	265.391770921791	-91.945975131414
548046.8	-6.72351112104499	309.923836235009	309.996757835336	-91.2427840294499
467390.6	-6.91618218054309	363.703985039127	363.76973803396	-91.0894032276934
398593.7	-2.04954780055556	422.612338162581	422.617307990848	-90.2778658066701
339937.5	-0.319283304015162	493.732007123333	493.732110359315	-90.0370516453766
289906.2	-110.900800058214	502.945491993804	515.027334585692	-102.434884303756
247234.4	-117.962941698826	607.783508407595	619.12522861412	-100.983811391808
210843.7	-121.065573776926	728.34260830045	738.335850558429	-99.437455598529
179812.5	-121.03858601171	867.716210911483	876.1174361821	-97.9410044292063
153343.8	-119.009015558206	1024.37525921075	1031.26515381216	-96.6267538387353
130781.2	-117.542516051978	1215.30445470945	1220.97549554299	-95.5243830409035
111531.3	-110.970729966229	1456.3540611848	1460.57579551309	-94.3573826037811
95109.37	-88.2089698787929	1700.44246025098	1702.72880488688	-92.9695069366357
81109.37	-86.0323321098575	1969.94713016147	1971.82485474742	-92.5006555728801
69171.88	-73.7527761350984	2308.3421831896	2309.52010311237	-91.8300084736795
59000	-58.325629150373	2700.13160523526	2700.76147865859	-91.2374555219552
50312.5	-33.2665366804779	3170.94200218196	3171.11649796479	-90.6010712989034
42906.25	-7.85151128174318	3739.39131314639	3739.39955595335	-90.1203024130091
36593.75	31.603756217074	4357.66382697293	4357.77842785924	-89.5844722830028
31203.13	-627.011362267716	4955.73473335686	4995.24273642557	-97.2108843108711
26609.38	-694.322123159384	5671.6966306574	5714.03761633743	-96.9793520658588
22703.13	-652.102366494703	6706.22137876501	6737.85148822626	-95.5538903673528
19359.37	-596.45506390555	7906.52933806217	7928.99519591836	-94.3141242902487
16500	-623.128206014873	9217.41212396822	9238.45089959391	-93.8675036889442
14112.02	-609.481986551623	10840.4770469086	10857.5969208883	-93.2179414366044
12011.13	-392.28356063176	12689.7106471225	12695.7726310625	-91.770650046104
10236.38	-238.283228116291	14799.2221392176	14801.1403217019	-90.9224433261923
8750.684	-80.2224968362135	17305.3445831487	17305.5305261212	-90.2656045098543
7449.463	-68.9886895743364	20138.6459178723	20138.7640843405	-90.1962766166435
6363.206	55.8913467584951	23739.798405955	23739.864199233	-89.8651070110579
5414.761	240.174218404515	27677.6703238643	27678.7123654932	-89.5028257971967
4620.567	877.955725526481	32635.558948028	32647.3661128458	-88.4590112860273
3941.215	793.097169278371	37839.6974227074	37848.0079285815	-88.7992909205555
3361.769	-6478.42644689625	40903.6935316537	41413.5503640933	-98.9998877303876
2867.244	-6422.82552577903	48978.0845454935	49397.4235510326	-97.470949854081
2442.658	-6709.37500276339	57672.2453776497	58061.2056353254	-96.6357492761188
2083.003	-6238.32495319781	68333.7311011529	68617.8949285561	-95.2161890429027
1777.843	-6080.89948443177	80375.0779265309	80604.779574388	-94.326557474403
1513.548	-5211.79557796778	94297.2647852593	94441.1825377458	-93.163510446067
1292.065	-3608.37235362421	110282.547566248	110341.56355945	-91.8740116323456
1101.762	-3219.1218605221	128868.654817479	128908.855165266	-91.4309433693709
939.101	-2839.9063804636	150843.039025486	150869.769969646	-91.0785743253654
801.2801	-1667.99139042048	178186.187670051	178193.994488212	-90.5363270680536
684.3433	1923.65666047881	205264.46140174	205273.47507531	-89.4630625262146
582.9476	-1374.33954429852	241250.397917683	241254.312509898	-90.3263953319177
497.0677	4612.80108019328	271597.507474417	271636.676463472	-89.0269843483405
423.5089	1636.53650265248	314938.193343838	314942.445342645	-89.7022724056817
361.5036	-63084.753737791	348212.100993645	353880.422505352	-100.268760063484
308.1262	-63607.8128327471	414730.172276894	419579.634455949	-98.7195967770096
262.7298	-26321.4529757506	505592.283564645	506276.975663388	-92.9801639516251
224.2111	-56907.5506353642	576309.65461632	579112.499712533	-95.6393756703863
191.2854	-135127.779875052	722201.593590911	734734.41370281	-100.597809725228
163.1722	118597.196484333	863336.48504204	871444.307697679	-82.1781906400237
139.1537	-55094.3436723633	779600.500241028	781544.833442554	-94.0423704080182
118.6706	-228866.847496686	1076404.83610973	1100466.90322039	-102.003561675581
101.1982	629079.414597422	571105.353044749	849648.300267001	-42.2345181665697
86.24196	188651.119136829	579360.211860953	609300.828687395	-71.9637282515494
73.61024	148006.988002055	354673.985284892	384317.192349377	-67.3490115780068
62.69291	49936.9961104413	40801.1422168706	64485.9425513462	-39.2506227244638
53.57697	84907.9897487304	81966.0029887573	118016.068266671	-43.9899806367592
45.65746	382600.791496015	-82693.3582730382	391435.252827144	12.1960140046224
38.96512	469310.163738694	67642.2335797956	474159.784832184	-8.20162727671197
33.18414	527737.325272961	-250102.891965158	584001.833092666	25.3569977982262
28.30617	588542.147280723	632786.958183138	864176.598602665	-47.074733839542
24.17237	202648.812051637	718783.433599165	746803.967211306	-74.2551010658366
20.61345	816061.867174855	221092.977864964	845481.564505169	-15.1590537829856
17.55618	633858.545422096	887840.127909545	1090888.05490346	-54.4756984341823
14.98558	519167.558232031	2059196.27314618	2123634.67782472	-75.8494134265677
12.76553	2159152.34945042	120210.695773456	2162496.12242788	-3.18664973594224
10.8809	-1537472.77988087	10064322.0419361	10181080.5277571	-98.6856203797583
9.278505	-176743.919288102	2465595.08960822	2471921.83511241	-94.1001818495469
7.923394	311959.474850435	2105828.55471388	2128810.1408527	-81.5734336872631
6.75822	2106437.69762872	-1480256.55351478	2574536.70360607	35.0968563266818
5.761429	731703.868631044	-116590.617073227	740934.493298262	9.05347227862273
4.919708	1243625.4552787	887398.976614601	1527770.01433913	-35.5100620293742
4.191257	471411.393643514	-1382181.48571771	1460361.03807166	71.1673742120971
3.564097	1673148.96319834	1812573.85928482	2466749.16609176	-47.290544122656
3.051758	1541282.27822475	-306614.169695917	1571484.42888499	11.2512180596076
2.604164	10912291.7279455	8996492.33154444	14142665.4145294	-39.5034174332535
2.214424	7132839.49674148	7118940.25319617	10077534.8977243	-44.9441215234126
1.892567	234372.680156746	3127800.78680273	3136569.51383635	-85.7147153346892
1.607507	4944961.80101818	-899045.651696745	5026025.29812215	10.3044167623098
1.376413	2260306.82146981	-7599235.75389412	7928264.05781529	73.435484939902
1.17375	679738.33783792	7290033.28088515	7321654.82963652	-84.6730207673619
1.001604	14605621.1883014	11994369.4390818	18899446.2494894	-39.3933866182765
