EC-Lab ASCII FILE
freq/Hz	Re(Z)/Ohm	-Im(Z)/Ohm	|Z|/Ohm	Phase(Z)/deg
6999984	24.3591444260428	83.2635547643693	86.7536020529865	-73.6929148772543
5969734	25.0389324738129	81.1085568523665	84.8854883599177	-72.844077903768
5091109	23.8583147253753	78.2526666711177	81.8089177454152	-73.0441547658276
4341796	24.0979679802935	83.6311268488229	87.0337718290041	-73.9258795167545
3702781	23.5832235308777	88.4030222274855	91.4946051473016	-75.0630861485301
3157797	26.9160242655269	95.6618241725311	99.3763400728699	-74.285181350081
2693047	27.9284657708314	106.945296520766	110.531876163517	-75.3642327656509
2296687	25.0896370111129	122.251924159295	124.799931274017	-78.4022841785526
1958656	32.9641276042813	138.959786930004	142.81616187373	-76.6549347907421
1670375	32.121994015287	158.020960954653	161.252741373752	-78.5096564693601
1424531	40.767552017262	181.638684929492	186.15747409222	-77.3499898920153
1214875	45.2587869894148	204.157726199678	209.114167302878	-77.5005059047962
1036062	54.8815779184432	237.714408753562	243.967472675916	-76.9997980876313
883578.1	64.8016449129495	278.299296469193	285.744206588115	-76.8923112052648
753531.2	74.7862756412409	316.72535186028	325.434994331135	-76.7144651056562
642624.9	84.6678667563722	365.961150711919	375.627756550906	-76.9733847332758
548046.8	111.699808138437	427.100129746249	441.465024625311	-75.3436635808057
467390.6	138.134646473286	484.285783586968	503.600934014963	-74.0800624594242
398593.7	286.533298222919	650.903983139934	711.180234721084	-66.2405101317672
339937.5	320.466562862048	726.009001065525	793.591763780835	-66.1829278733565
289906.2	372.395878710761	822.572749247016	902.942200965573	-65.6427432641072
247234.4	450.860895827776	924.432981665206	1028.51926816032	-64.0007608148213
210843.7	525.604237603021	1006.03140833145	1135.05903332629	-62.4150428210172
179812.5	627.154684588917	1118.51757967928	1282.34339178451	-60.7205774376973
153343.8	719.237857931046	1226.75083607074	1422.04806883646	-59.6171180200549
130781.2	842.485960890115	1346.32038392813	1588.19431130996	-57.9629315697327
111531.3	990.139025278269	1473.10199267606	1774.93796235395	-56.0931525602586
95109.37	1184.38551164292	1564.26149085811	1962.06091953622	-52.868700787867
81109.37	1328.18805436499	1705.34890134326	2161.54999550566	-52.0872379215102
69171.88	1580.89636669739	1798.06568406136	2394.21668326743	-48.677399924926
59000	1790.72477139245	1887.21875968839	2601.59371420642	-46.502858934644
50312.5	2012.026704297	2038.96880050416	2864.5497426705	-45.3810534084014
42906.25	2436.86857733242	2051.64770819085	3185.52770851469	-40.0946869595167
36593.75	2711.3494802351	2016.24364300945	3378.85401163577	-36.6356376179088
31203.13	3029.6067760867	2265.85919000438	3783.20434111584	-36.7930119354973
26609.38	3248.18383653809	2221.65760563343	3935.28407521187	-34.370924529829
22703.13	3542.92532562988	1944.74034676276	4041.57579160858	-28.7627391465751
19359.37	3772.72495225326	1835.23613925	4195.4195561545	-25.9405323942551
16500	3887.26702628397	1875.81359864904	4316.19295102887	-25.7597871282032
14112.02	5393.62599408903	1867.60422587692	5707.81454749768	-19.0989923316247
12011.13	5620.83444642407	1693.58238530014	5870.43449583642	-16.76778749142
10236.38	5817.11252274577	1447.7471009873	5994.56168295088	-13.9756839416562
8750.684	5725.09338112625	1388.70989678562	5891.11274718503	-13.6346365436825
7449.463	5780.89909740984	1096.38153268638	5883.94823563648	-10.7389364949811
6363.206	6022.24239179735	1031.18320195033	6109.88888782321	-9.71647612083631
5414.761	6028.52366430578	945.952031185064	6102.28832622632	-8.91772138822238
4620.567	6019.01415540752	817.442653648544	6074.26900087575	-7.73402496094981
3941.215	6082.86971746637	661.163698547951	6118.69605683654	-6.20328226758854
3361.769	6170.13892099453	764.564340751463	6217.32844037697	-7.06372163642626
2867.244	6136.30347295703	542.978389066397	6160.27968871687	-5.05671751614501
2442.658	6185.03911011101	549.716908713404	6209.42005933954	-5.07901646057371
2083.003	6203.73250046447	486.170394002031	6222.7532965178	-4.48096311401616
1777.843	6150.67502668368	449.77796183151	6167.0984667686	-4.18240110950923
1513.548	6229.31969071334	455.356381078738	6245.94054109532	-4.18082203782585
1292.065	6230.0665287801	465.570725571804	6247.4382792898	-4.27375006261812
1101.762	6212.65928106812	395.288283858401	6225.22193740894	-3.64060878068675
939.101	6269.17303681332	463.780333338249	6286.30438040495	-4.23091516489634
801.2801	6217.31050042028	437.415369669223	6232.67856256515	-4.02438106848554
684.3433	6281.18871292433	480.027177573293	6299.50456294596	-4.37021953954209
582.9476	6292.32836265014	499.578433647192	6312.12918394236	-4.53946726151917
497.0677	6270.64293442679	546.196829294597	6294.38589438303	-4.9781157280622
423.5089	6308.97883571196	662.313563999906	6343.64825684082	-5.99293227226216
361.5036	6367.72683707596	666.759453778588	6402.53959306934	-5.97761138082037
308.1262	6327.09664709804	754.856603107195	6371.96676646809	-6.8035357720794
262.7298	6364.05729247782	874.674897322371	6423.88366939705	-7.82569247859279
224.2111	6447.41985986916	980.388026742838	6521.53229942289	-8.64610501586266
191.2854	6455.74275579876	1074.01661269339	6544.47295153625	-9.4455644865646
163.1722	6515.18602379717	1214.15092185893	6627.35327153554	-10.5563806822965
139.1537	6541.80170075528	1367.27179132345	6683.15805913294	-11.8051880334078
118.6706	6584.56468006882	1580.87157811536	6771.67977480497	-13.5004727463747
101.1982	6673.46220972328	1766.90609386558	6903.40894117856	-14.8297004536105
86.24196	6827.55958930678	1964.25826189938	7104.49720001177	-16.0502896333116
73.61024	6619.91159159202	2025.47393754209	6922.84436862166	-17.0123774445834
62.69291	5374.07691978331	2401.51846582609	5886.25463953534	-24.0784768558595
53.57697	6727.01039938286	3041.58754160892	7382.67727092792	-24.3298907363629
45.65746	6641.52300915053	3002.43246110384	7288.65066830384	-24.3262925614095
38.96512	7200.03165787469	3574.95222015763	8038.70258504491	-26.4052699210417
33.18414	6928.69626109161	4032.32821282468	8016.63911464192	-30.198336468477
28.30617	8333.96697489876	4986.97454246198	9712.10176150698	-30.8959412319385
24.17237	7666.00266594705	5204.96232061805	9266.02555756031	-34.1752078765903
20.61345	7562.87533439079	5960.06779233037	9629.09608492461	-38.2405496978497
17.55618	7674.18322720766	7200.33415842458	10523.2076952672	-43.175377891532
14.98558	8494.47822311477	8121.18179586364	11752.0106383733	-43.7129784611253
12.76553	8460.92330724342	9134.04492372044	12450.6224695634	-47.1908666550371
10.8809	19620.2382306262	10722.7990794707	22359.1629611938	-28.6573664784726
9.278505	20145.5356694109	12480.7007480946	23698.322695309	-31.7793275604712
7.923394	20913.9228964851	13812.5463133552	25063.491508142	-33.4426641467817
6.75822	21087.5234709377	15825.1733055517	26365.1238625593	-36.8864670814611
5.761429	22792.6588590731	17599.3677165248	28796.5803853085	-37.6735506637882
4.919708	22301.8120933769	20973.5990495566	30614.7461158811	-43.2420243422616
4.191257	23913.8036328317	24750.9162816297	34416.2441438614	-45.9854837752188
3.564097	23056.1033127467	28347.9334781354	36540.2412751864	-50.8776552610536
3.051758	23637.4595808383	30879.5522325215	38887.996110841	-52.5669239171716
2.604164	26988.9777718516	34182.9101650059	43553.143038343	-51.7072866892471
2.214424	26006.8841406143	37570.9690689976	45693.935478211	-55.3087504204127
1.892567	34223.4211957529	48966.5913897577	59740.8539499847	-55.0497734970136
1.607507	29869.3818294508	51093.670506348	59183.9770265972	-59.6894252938004
1.376413	39292.0811742682	73350.1255628949	83211.2285878398	-61.8230055313085
1.17375	147320.549882321	60685.2084087095	159329.968735445	-22.3880508249953
1.001604	151618.400017296	76054.9225816872	169624.557398719	-26.6392888028849
