EC-Lab ASCII FILE
freq/Hz	Re(Z)/Ohm	-Im(Z)/Ohm	|Z|/Ohm	Phase(Z)/deg
6999984	-11.0088867745102	30.6698933842874	32.5858550327829	-109.745481994948
5969734	-13.7033411669469	32.5658091139632	35.3314800480369	-112.820832960313
5091109	-14.8708429967866	36.2850851274975	39.2141476274165	-112.285461196543
4341796	-14.6197176795294	41.8383913379239	44.3191508805664	-109.261103474945
3702781	-13.7848588598692	49.0845348993369	50.9834669287088	-105.68682086158
3157797	-12.5927285599812	56.4691900710606	57.8562549761643	-102.571362850556
2693047	-13.207313818362	65.3313120158261	66.652932928761	-101.428827711286
2296687	-12.6391771324519	77.0089831633039	78.0392996280177	-99.3206295041018
1958656	-12.3173262043767	89.3438496566874	90.1889128235937	-97.8495603651035
1670375	-12.4406628514052	104.119505398214	104.86010440845	-96.8136526715069
1424531	-11.7793309308866	121.849513434123	122.41755005436	-95.5216901392664
1214875	-10.3684159029572	142.327235361037	142.704400681453	-94.1665876580025
1036062	-9.97752097924057	165.899308447552	166.199071803266	-93.4417387513825
883578.1	-9.60268944628369	193.969988157177	194.207538345701	-92.8341743054258
753531.2	-8.65320895682415	226.344365800602	226.509712716535	-92.1893676027856
642624.9	-7.40790630344691	264.313130760895	264.416921108363	-91.6054090179882
548046.8	-5.34304331925585	308.500403943205	308.546669638536	-90.9922295856392
467390.6	-4.20712532475424	360.748799384248	360.773330722594	-90.6681646567132
398593.7	-1.03673041346455	420.635203105763	420.636480707246	-90.1412153725314
339937.5	1.74912433325697	490.45334831123	490.456467289024	-89.795664526288
289906.2	-100.224835324645	501.622072984101	511.536627936572	-101.298995474909
247234.4	-107.811722340954	603.857944520019	613.406704099381	-100.122827713065
210843.7	-111.58906080477	723.896609911917	732.446872020939	-98.7631988652191
179812.5	-116.319173688892	861.500406274286	869.317606044204	-97.6895332529234
153343.8	-114.835817250312	1019.78326030188	1026.22861142899	-96.4249008075107
130781.2	-109.602660657579	1207.34610518879	1212.31075262812	-95.18708278691
111531.3	-101.097455475081	1433.61558004273	1437.17581626076	-94.0337760410912
95109.37	-91.8957818310487	1691.74838984056	1694.24244110648	-93.1092513428681
81109.37	-83.2372471119034	1963.23287941957	1964.99663565637	-92.4277753413395
69171.88	-71.0008513803913	2301.82574670156	2302.92051297368	-91.7667539330971
59000	-57.0278679977426	2692.42714444508	2693.03102579102	-91.2133912945597
50312.5	-6.20281338800506	3134.8305910384	3134.83672771073	-90.1133696236881
42906.25	-6.49815521262231	3713.92129833801	3713.92698316349	-90.1002488901796
36593.75	27.0199402709384	4314.62425128283	4314.7088554073	-89.6411951047208
31203.13	-596.590845778672	4718.17835910111	4755.74680418932	-97.2065298316281
26609.38	-664.326920810244	5631.4946996746	5670.54343164536	-96.7278808895758
22703.13	-625.41600802398	6670.32230328041	6699.57795780694	-95.3564491111507
19359.37	-614.891309915287	7843.73487936756	7867.79944970744	-94.4824019946786
16500	-547.114044807647	9260.83512770343	9276.98232403898	-93.3810052250986
14112.02	-487.319947764555	10972.006269159	10982.8230570265	-92.5431117454993
12011.13	-359.299334125449	12703.176386034	12708.2566194658	-91.6201340333231
10236.38	-383.320161700368	14831.257423901	14836.2101333321	-91.4805042186497
8750.684	-311.137700770879	17392.117560778	17394.9003997368	-91.0248881799617
7449.463	-140.888381694147	20266.5039073881	20266.9936143542	-90.3983015352066
6363.206	-54.6056430467672	23859.0409426134	23859.1034298767	-90.1311313153371
5414.761	441.345417736222	27594.970850285	27598.4999955765	-89.0837071700584
4620.567	837.285306101616	32252.706774277	32263.5729724919	-88.5129266145491
3941.215	-6266.91977238143	34187.073100504	34756.7295730291	-100.387706101753
3361.769	-6407.71057846652	41003.4519201932	41501.1063012661	-98.8819157203702
2867.244	-6690.66263666193	48703.5708239976	49160.9883701068	-97.8220583909372
2442.658	-6414.32943360196	57867.3856558314	58221.7995661719	-96.3251488553784
2083.003	-5972.90492298345	68218.5930038314	68479.5737767211	-95.0037935882477
1777.843	-5248.22747504369	79993.0199369061	80164.9994090692	-93.7537142708313
1513.548	-4695.70666587539	94935.7366574417	95051.7951213077	-92.8316532911272
1292.065	-3806.16463089109	109850.685706703	109916.604930421	-91.9844205994673
1101.762	-3852.30321918876	129674.835453876	129732.043806002	-91.7016086317907
939.101	-3649.67012898287	153391.558281617	153434.970733901	-91.3629905748684
801.2801	-1859.48797875884	174402.036684518	174411.949404996	-90.6108688772001
684.3433	-1537.6230767643	207008.945755274	207014.656262391	-90.4255743262548
582.9476	-1879.80861402769	240266.970554123	240274.324095774	-90.448263454942
497.0677	20803.3310218406	282554.398302447	283319.1955757	-85.7891425522767
423.5089	-72606.7340992694	277294.396592096	286642.495485119	-104.672914747316
361.5036	-50346.7818286466	360565.8689105	364063.928814275	-97.9489685425586
308.1262	-68658.5665088513	444484.27375396	449755.787477644	-98.7809605568681
262.7298	-72357.798944747	464503.084988782	470105.059568841	-98.8540699715268
224.2111	-60102.119616372	561626.461009687	564833.202360348	-96.1082270341419
191.2854	-6170.32435588831	646109.730884395	646139.193398885	-90.5471559703816
163.1722	-9001.18518889098	794655.243543318	794706.22082987	-90.6489705705763
139.1537	-317599.442490947	1126384.31512474	1170303.82005255	-105.746523063833
118.6706	-131962.984724103	914317.434903825	923791.427274796	-98.2127583114369
101.1982	879232.176624206	687653.564274717	1116206.36303108	-38.0292084855377
86.24196	398517.604014393	521925.620256899	656675.440221364	-52.6363664019415
73.61024	114553.20431454	340120.064884414	358892.874205809	-71.3863586813961
62.69291	33791.5888801649	59947.4857216462	68815.4962446182	-60.5906306097616
53.57697	57360.3308470818	92743.5592402255	109048.499922887	-58.2639062995149
45.65746	223363.191550225	266608.458818041	347809.122440504	-50.0438985367351
38.96512	520731.029459027	-61344.335262035	524331.891563158	6.71872082966618
33.18414	629375.240005158	333637.098491398	712339.038816004	-27.9284381123513
28.30617	718044.524615911	6393.80329462585	718072.990754742	-0.510174856109552
24.17237	648975.557292512	-310666.376158791	719501.821567369	25.5805659298863
20.61345	762098.59149405	656953.214477858	1006171.84872665	-40.7623833260724
17.55618	812456.562622784	542779.955816632	977085.332294541	-33.7457989274515
14.98558	1507775.96123096	-625134.370775114	1632232.00887323	22.5192352417684
12.76553	1036523.08039123	1379878.628186	1725817.2338658	-53.0872326205079
10.8809	2899494.49741093	1143360.98280654	3116784.02805209	-21.5208620133309
9.278505	930184.635500279	-1883912.52037481	2101040.18061192	63.7220741432696
7.923394	3773143.55289515	934788.315616978	3887215.12985431	-13.9147326914102
6.75822	395730.669275085	982530.353068498	1059230.21921857	-68.0620575540471
5.761429	359274.986473309	-488564.528494415	606443.578915934	53.6704062531259
4.919708	1523101.81777437	-135784.235241994	1529142.40862251	5.09443991146084
4.191257	284469.325706658	1408797.9997403	1437231.5754047	-78.5841409827271
3.564097	1633843.47934935	-1150221.44426649	1998112.58087799	35.1454431477089
3.051758	108038.329868759	1818764.39467541	1821970.417998	-86.6005080859615
2.604164	10388962.2912133	5885640.23751102	11940322.3781295	-29.5327772344971
2.214424	151102.609959031	5016281.80496711	5018557.0780435	-88.2746334675542
1.892567	2353824.58017151	-1429673.03812897	2753988.95244199	31.2737839795155
1.607507	812730.174873827	-4189138.1500318	4267248.38475595	79.0205056394987
1.376413	5748852.06209467	-2423850.79563748	6238938.42823942	22.8614285553323
1.17375	5539756.91043019	2296796.31740446	5997014.25296804	-22.5190117882283
1.001604	5907809.63337021	-14955485.9785768	16080073.8654879	68.4446787696354
