EC-Lab ASCII FILE
freq/Hz	Re(Z)/Ohm	-Im(Z)/Ohm	|Z|/Ohm	Phase(Z)/deg
6999984	-13.7877919343823	29.0316243016602	32.1393592969519	-115.404127771219
5969734	-13.0650861540951	35.7838887136839	38.0943981142535	-110.057686697515
5091109	-12.2014039545084	41.5518076106892	43.3062001816925	-106.364515341661
4341796	-10.5030132743839	47.2930991264723	48.445335305148	-102.521229043482
3702781	-15.5121057711703	49.0608718736222	51.4547818424677	-107.54595431522
3157797	-14.0294103558848	56.8044719051993	58.5113013302763	-103.873122961093
2693047	-14.1659552967861	66.3466336288459	67.8420966904093	-102.052492271286
2296687	-14.0348494933091	77.3313115739218	78.5945847373902	-100.286636346692
1958656	-13.73646843742	89.4415673787365	90.4902455533042	-98.7312851160303
1670375	-13.5755778985715	104.584043981559	105.461455379758	-97.3959496786984
1424531	-13.2098078008574	122.069858183112	122.782528476085	-96.1762371244239
1214875	-12.2814553759959	142.569209209174	143.097217166099	-94.9235222011499
1036062	-11.8251890083285	165.722391617707	166.143751548397	-94.0814461296461
883578.1	-11.1499188152923	193.67872628003	193.999406450232	-93.294832372711
753531.2	-10.2172190138607	226.383846231079	226.614292132588	-92.5841355236307
642624.9	-8.58350181758392	263.903647518293	264.043200398934	-91.86289625112
548046.8	-6.6701247717782	308.501550565792	308.573649662392	-91.2386014375455
467390.6	-2.42920633317927	363.068111490428	363.076238033605	-90.3833473367537
398593.7	-3.90282439419236	421.33763008926	421.355705511965	-90.5307120816613
339937.5	-0.801460206353641	493.608873715501	493.609524370375	-90.0930296219609
289906.2	-91.1006156263243	509.17237453109	517.257990903112	-100.143969855705
247234.4	-98.9395474996931	609.880438205638	617.853690581634	-99.2146896077821
210843.7	-102.603971538595	729.423010838898	736.604034550977	-98.0069518714259
179812.5	-101.824978921776	865.662052238912	871.630148066773	-96.708686803439
153343.8	-100.264304518606	1030.88276533843	1035.74717312306	-95.5551508745021
130781.2	-99.8828818464726	1217.26608815488	1221.35716293713	-94.6909013363267
111531.3	-101.641875081105	1420.16435013554	1423.79698418205	-94.0937074264619
95109.37	-75.2889924905037	1672.8647987458	1674.55817076417	-92.576916255412
81109.37	-29.5225547358576	1977.42700329196	1977.64737367064	-90.8553499683825
69171.88	-94.7568202847482	2301.99583750675	2303.94524476796	-92.3571296451999
59000	-41.9861487076349	2704.26146785059	2704.58738501545	-90.8894982529723
50312.5	-20.2567973458756	3174.17105247921	3174.23568882899	-90.3656429408841
42906.25	3.90269818359848	3715.69759757327	3715.6996471277	-89.9398207075429
36593.75	56.5379684133945	4300.09169826253	4300.46336518969	-89.2467136627732
31203.13	35.5378393253922	4851.27894765078	4851.40911137616	-89.5802896910983
26609.38	-599.223346741303	5691.48827426516	5722.94569215694	-96.010193955395
22703.13	-572.231991217183	6727.87595953112	6752.16738378198	-94.8615281677167
19359.37	-496.22813436144	7836.19777246299	7851.89390468858	-93.6234236682185
16500	-481.336507990693	9334.32192155843	9346.72405547585	-92.9519171323252
14112.02	-664.834036643859	10989.6620538414	11009.7536917918	-93.4619641615506
12011.13	-223.440369403404	12636.9467360282	12638.9219638343	-91.012970657823
10236.38	-238.774130637509	15118.0409066033	15119.9263866989	-90.9048535218818
8750.684	-97.9399089651248	17222.5217970671	17222.8002739456	-90.3258223741226
7449.463	169.272808883575	20270.9281533338	20271.6348990763	-89.5215615170974
6363.206	110.49479432642	23704.4084037335	23704.6659303725	-89.7329256477212
5414.761	493.453626928246	27735.8204004107	27740.2096200761	-88.9807466542734
4620.567	970.998406916357	32602.2973820492	32616.7538619925	-88.2940567368091
3941.215	194.692170849302	37366.2568026553	37366.76400872	-89.7014702647685
3361.769	-5469.16305434274	41282.0894922257	41642.7983853045	-97.5467521703768
2867.244	-5473.06008754052	49440.6658800188	49742.6761381159	-96.3168982631285
2442.658	-4959.75372390976	57844.5006952378	58056.7430853919	-94.9007184809036
2083.003	-4878.42152214641	68089.7862243501	68264.3243914817	-94.0980619057049
1777.843	-4210.1861650145	80412.380600091	80522.522447561	-92.997123502361
1513.548	-3338.95568327781	94560.2881383334	94619.2196007742	-92.0222931097254
1292.065	-2741.68991052754	110646.853804702	110680.816406659	-91.4194269176888
1101.762	-1824.85271823682	130053.130258464	130065.932424553	-90.8038983583797
939.101	-3699.03454594908	153567.644703036	153612.188175972	-91.3798355340452
801.2801	-2850.27171718745	176530.304151729	176553.313004213	-90.9250216362704
684.3433	3151.33943579907	208318.855373972	208342.689923504	-89.1333253151168
582.9476	5898.92971367315	242254.470247368	242326.27947996	-88.6051155237857
497.0677	-62318.1517287928	258284.005155419	265695.651740892	-103.564928963092
423.5089	-44237.2374423944	325773.991822729	328763.785908135	-97.7329634537943
361.5036	-50189.9715371256	368403.880798137	371807.009925883	-97.7580017094415
308.1262	-58213.6307534479	416006.361043441	420059.66151739	-97.9659280932945
262.7298	38344.5165765428	553127.90294409	554455.389519135	-86.0344257843722
224.2111	-38866.4956868368	587730.253709729	589013.968945285	-93.7834507803985
191.2854	19011.2002407807	819501.729527424	819722.215407777	-88.6710629660052
163.1722	-103566.378692879	1234095.84834322	1238433.91333309	-94.7970704157645
139.1537	-282662.455693894	666656.105224823	724105.259263066	-112.976963959486
118.6706	206671.450183248	777509.763303298	804508.869033026	-75.1143085754148
101.1982	59842.3925386755	724701.343344402	727167.896011598	-85.2794965935078
86.24196	282288.759704213	228962.876664497	363470.69035319	-39.0453204873125
73.61024	280962.579555417	-206892.50659404	348919.016958375	36.3668287387452
62.69291	53064.224752631	-202.452779985552	53064.6109542496	0.218596118505461
53.57697	104075.699997154	42329.2534940807	112354.425953158	-22.1323626793402
45.65746	268166.604254175	1758.91147642167	268172.372564358	-0.375799064417521
38.96512	201413.287038944	-320315.107273938	378376.902233403	57.8384278408507
33.18414	344407.27756411	267767.557799356	436252.034779155	-37.8641221560267
28.30617	13307.9580263199	-899161.605563043	899260.081770308	89.1520610350176
24.17237	627002.446544254	-166239.107217502	648665.945414858	14.8493529059835
20.61345	162522.831482317	836933.610034617	852567.615124223	-79.010593469643
17.55618	-277094.584773943	911746.941939157	952923.866343187	-106.904871838249
14.98558	1260315.13191149	-363191.890116847	1311603.05762518	16.0756831227918
12.76553	1141677.03670857	-697723.193471779	1338000.04142606	31.4307228491798
10.8809	340293.25202258	822321.399978995	889950.550443966	-67.5192373389401
9.278505	360183.787796927	1311800.52017109	1360350.30992494	-74.64654583147
7.923394	869279.125539591	-1607748.76083053	1827704.09969748	61.6007552025773
6.75822	1075223.65735607	-184035.77007695	1090859.78842653	9.71265449234279
5.761429	634466.920642448	-112022.324080416	644280.43155282	10.0130218868622
4.919708	-103658.337474567	-1020349.38315389	1025601.24543144	95.8008351770542
4.191257	1162139.43609142	838978.435209961	1433336.27724489	-35.8264894308912
3.564097	1620723.67558451	-1215119.12027674	2025650.44098489	36.8603115581134
3.051758	1206668.44271183	356334.294844372	1258182.36369726	-16.4520934758809
2.604164	8141858.81190972	5385216.40496699	9761681.24051372	-33.4815851698049
2.214424	-1111548.62190913	3219622.92611747	3406099.25358162	-109.046817259566
1.892567	-430495.470850123	-2596323.93377143	2631772.08730103	99.4145372867238
1.607507	141696.13863379	-4126413.27455517	4128845.39649147	88.0333036442451
1.376413	3034929.23920975	-162652.338041921	3039284.6642065	3.06774380471874
1.17375	5802537.03013447	383514.867311402	5815197.30013786	-3.78142690982724
1.001604	6807396.83601656	-5469920.94068783	8732736.50011172	38.7827854960056
