EC-Lab ASCII FILE
freq/Hz	Re(Z)/Ohm	-Im(Z)/Ohm	|Z|/Ohm	Phase(Z)/deg
6999984	4.46360308327772	3.91342302265558	5.93621362817218	-41.2423672597873
5969734	3.96842588555686	1.6845519824835	4.31116218563474	-23.000674488283
5091109	2.47800835081337	0.203815104698496	2.48637607445134	-4.70196897841638
4341796	1.81238208528118	-0.552648340529725	1.89476885432984	16.9579980202476
3702781	1.06850285891046	-0.526515266929087	1.19118289351771	26.2322252077562
3157797	0.784403851140257	-0.522050443696501	0.942245226810611	33.6452677527179
2693047	0.59324064304969	-0.422527855449885	0.728329766793235	35.4598709265208
2296687	0.485297811867862	-0.331439816749157	0.587678754363682	34.3315795180374
1958656	0.383019648508817	-0.256601495691082	0.461029693983716	33.8198479928942
1670375	0.363908867075695	-0.203028893780429	0.416713804962136	29.1576445772911
1424531	0.338348683567367	-0.149815173562685	0.3700329956928	23.882966467427
1214875	0.310715876700257	-0.104932215610792	0.327955981660038	18.66039886903
1036062	0.304285868239028	-0.0851909198207973	0.315986364310064	15.6406534576828
883578.1	0.29407968445913	-0.065545998196304	0.301295766135422	12.5649988246867
753531.2	0.277599491871885	-0.0529853000256057	0.282610898421013	10.8060470415248
642624.9	0.282814653527927	-0.0472074354055128	0.286727519097291	9.47644691172215
548046.8	0.280874879271442	-0.0380021290274986	0.283434048089445	7.70527966836809
467390.6	0.278394862947098	-0.0242680922890496	0.27945060389751	4.98196428557209
398593.7	0.272864906432043	-0.0228137143498618	0.273816951127217	4.7792753089244
339937.5	0.278234053838067	-0.0170552278955402	0.278756290536614	3.50773528433356
289906.2	0.277088739563173	-0.0141719689961486	0.277450922323094	2.92789626608321
247234.4	0.27747535400631	-0.0165302603695828	0.277967303093032	3.40929769738331
210843.7	0.276771913720777	-0.0140588897588062	0.27712875095506	2.9078937364974
179812.5	0.275620061229179	-0.012631210729021	0.275909343148175	2.62393470731497
153343.8	0.272515911541365	-0.0114631018675246	0.272756896792082	2.40866816114858
130781.2	0.27264235553504	-0.0105914778051937	0.272848004269397	2.22467995397617
111531.3	0.272257528147147	-0.00974517091690596	0.272431881374031	2.04996678759133
95109.37	0.271752581673413	-0.0089266502959289	0.271899155444938	1.88140088539046
81109.37	0.271065431685858	-0.00813841337476902	0.271187577199434	1.71972021701367
69171.88	0.270466931181841	-0.00735863441919104	0.270567016399705	1.55847041289882
59000	0.269909095326737	-0.00656485440136321	0.26998892024194	1.3932998585919
50312.5	0.269520497096922	-0.00574463178225684	0.26958171145255	1.22103264903448
42906.25	0.269148778002267	-0.00496721467179072	0.269194609756045	1.05728933259522
36593.75	0.268856990308327	-0.00426456389222653	0.268890810075099	0.908739710967242
31203.13	0.268634114431774	-0.00363477957292157	0.268658703672684	0.775198718782716
26609.38	0.268560459103329	-0.00298804638885301	0.268577081328644	0.6374556541287
22703.13	0.268533851406051	-0.00254184226405798	0.268545881206662	0.542324492022595
19359.37	0.268365881587385	-0.00212999790353003	0.268374334263251	0.454742335346236
16500	0.268389093642898	-0.00174582857997704	0.268394771752147	0.372694721787722
14112.02	0.268359288608677	-0.00140649035022615	0.268362974341955	0.300288555526773
12011.13	0.268355356922886	-0.0011435775137107	0.268357793549469	0.244160464000167
10236.38	0.268379748857106	-0.000985054450037955	0.268381556610869	0.210296079997857
8750.684	0.268432766180732	-0.000841743758268096	0.268434085935438	0.179665870861723
7449.463	0.268434676655608	-0.000677564117181034	0.268435531784326	0.144621709463459
6363.206	0.268470772930549	-0.00055367369785686	0.268471343857199	0.118162289301199
5414.761	0.268477792182916	-0.000473295962969791	0.268478209366201	0.10100587026692
4620.567	0.268498142768348	-0.000332086458758025	0.268498348135456	0.0708650816793861
3941.215	0.268485185235909	-0.000324832329556327	0.268485381738378	0.0693204447594929
3361.769	0.268485768146117	-0.000266244079800008	0.268485900156638	0.0568173769428819
2867.244	0.268496178796556	-0.000241070191249435	0.268496287019373	0.0514431932527375
2442.658	0.268478176515723	-0.000189534186936203	0.268478243417257	0.0404483795360289
2083.003	0.268516169926554	-0.000136316165709916	0.268516204528001	0.0290870389881971
1777.843	0.268526968488223	-0.00013591192920408	0.268527002883374	0.0289996170878161
1513.548	0.268563412690628	-0.000102459605690252	0.268563432235305	0.0218589071124581
1292.065	0.268542752410465	-8.94917681365316E-05	0.268542767322013	0.0190937956044229
1101.762	0.268556000793678	-7.15265086970449E-05	0.26855601031877	0.0152600089464876
939.101	0.268585616143392	-8.81744854040701E-05	0.268585630616877	0.0188097403183309
801.2801	0.268591858112336	-9.33007306460335E-05	0.268591874317268	0.0199028291998815
684.3433	0.268559082849837	-5.74856633919559E-05	0.268559089002303	0.0122642876554902
582.9476	0.268531871366945	-8.04775004796024E-05	0.268531883426273	0.0171712242637055
497.0677	0.268549226564254	-9.7069915081118E-05	0.26854924410772	0.0207101553811105
423.5089	0.268555825040268	-8.80370606284923E-05	0.268555839470273	0.0187825076343283
361.5036	0.268523187946964	-0.000105428062810787	0.268523208643642	0.0224955720848295
308.1262	0.26849619131393	-9.49371963485291E-05	0.268496208098285	0.0202591344639395
262.7298	0.268463833591605	-7.91175558299397E-05	0.268463845249762	0.0168853355126691
224.2111	0.268516430735971	-5.48212282166191E-05	0.268516436332215	0.0116977011510412
191.2854	0.268500880990605	-5.84174422479106E-05	0.268500887345514	0.0124657797233039
163.1722	0.268484131811475	-3.65930449718331E-05	0.268484134305199	0.00780912826873556
139.1537	0.268512557958776	-4.8756403404983E-05	0.26851256238536	0.0104037447256737
118.6706	0.268482730194871	-2.67112046193712E-05	0.268482731523613	0.00570032673699342
101.1982	0.268479323243396	-2.87182936392447E-05	0.268479324779344	0.00612872899928612
86.24196	0.268479265297889	-6.00257896976693E-05	0.268479272008082	0.0128100184961964
73.61024	0.268467376792352	-3.28838979793077E-05	0.268467378806286	0.00701801679310867
62.69291	0.268502288707265	-3.64154620278246E-05	0.268502291176678	0.00777070571899408
53.57697	0.268482664579023	-3.26969466812717E-05	0.268482666570009	0.00697772067137712
45.65746	0.268461254718426	-1.5137453624101E-06	0.268461254722694	0.000323067925066686
38.96512	0.268457831614694	-3.81879925758514E-05	0.268457834330805	0.0081502959878462
33.18414	0.268467522286467	-9.185997502498E-06	0.268467522443623	0.00196045645604702
28.30617	0.268479633471048	-1.73884620423487E-05	0.268479634034142	0.00371084194721389
24.17237	0.268462817565952	-2.2586303082236E-05	0.268462818516067	0.00482040623016346
20.61345	0.268458615027732	-8.34631928300601E-06	0.268458615157475	0.00178131317999024
17.55618	0.268502594197845	-8.25646282926389E-06	0.268502594324788	0.00176184693890067
14.98558	0.268444837340017	-2.3737629417572E-05	0.268444838389534	0.00506646352824019
12.76553	0.26847036802329	7.55938458731787E-06	0.268470368129716	-0.00161329101473694
10.8809	0.268486648674003	-3.33359468386267E-05	0.268486650743538	0.00711398149421513
9.278505	0.268454964107244	-1.56171339987374E-05	0.2684549645615	0.00333313212584539
7.923394	0.268500615609607	-3.81768676879681E-05	0.268500618323703	0.00814662332837941
6.75822	0.268488793424293	2.18667449573496E-05	0.268488794314749	-0.00466638543454978
5.761429	0.268466133542825	-8.0553209700472E-06	0.268466133663675	0.00171915871837444
4.919708	0.268458489940909	-6.4309526581985E-06	0.268458490017936	0.00137252670077163
4.191257	0.26849813228002	1.25469311554848E-05	0.268498132573179	-0.00267743464143531
3.564097	0.268455491134438	-1.98798808302196E-05	0.268455491870519	0.00424291290112638
3.051758	0.268470083415937	1.46818959388362E-06	0.268470083419951	-0.00031333497640924
2.604164	0.268464502038513	1.65137884496013E-06	0.268464502043592	-0.000352437798940872
2.214424	0.268451486987267	-1.11110620889448E-05	0.268451487217208	0.00237144137432554
1.892567	0.268450233060611	3.36658605194766E-06	0.268450233081721	-0.000718536057633253
1.607507	0.268448493524241	-4.60822442307887E-06	0.268448493563794	0.000983547372530703
1.376413	0.268427969745168	-1.02493126982088E-05	0.268427969940841	0.00218770927928755
1.17375	0.268433989736774	4.55997408253968E-07	0.268433989737161	-9.73301741238174E-05
1.001604	0.268412189429473	-1.22101402927384E-05	0.268412189707194	0.00260639990695279
