EC-Lab ASCII FILE
freq/Hz	Re(Z)/Ohm	-Im(Z)/Ohm	|Z|/Ohm	Phase(Z)/deg
6999984	15.0053480226257	0.760426103905265	15.024603726542	-2.90109673817376
5969734	14.1743321981268	3.21013152211469	14.5332941087741	-12.7607956920167
5091109	11.9730495296923	-5.17052986334803	13.0417902953636	23.356974022763
4341796	6.95771674173469	-5.20677506310929	8.69024331167039	36.809175074898
3702781	6.75776476954158	-3.76639603209899	7.73648006208692	29.132824045606
3157797	4.21718171630904	-4.64107044387491	6.27089758275325	47.7396513607913
2693047	2.80662378773261	-4.55342207322113	5.34890546399578	58.3512823632723
2296687	2.49495294478329	-4.09413483831548	4.79444785882497	58.6420011485217
1958656	1.75627135832236	-3.40030659786742	3.82708427442671	62.683473548036
1670375	1.36147004769741	-2.9218938067301	3.22351735043957	65.0166149855882
1424531	1.22749589223663	-2.41296389686468	2.70723861767488	63.0371603949703
1214875	0.868930296703511	-1.87711177176783	2.06847491264424	65.160198209048
1036062	0.790533881708053	-1.76912570337488	1.93771761938371	65.9225185554696
883578.1	0.767331536474552	-1.55025942173998	1.72976933767539	63.6659815751263
753531.2	0.61973152849545	-1.36983741205689	1.50350314362227	65.6574109836625
642624.9	0.580229977297958	-1.12659966233065	1.26723858279281	62.7502804269483
548046.8	0.595355450679087	-1.02749852259549	1.18751897946484	59.911045368957
467390.6	0.51384544640016	-0.907752309219027	1.04309702217898	60.4873836150791
398593.7	0.498893160128683	-0.789702396081462	0.934090070389353	57.7174191545191
339937.5	0.491163933677789	-0.675549725758468	0.835230172897376	53.9806686287672
289906.2	0.460945150733458	-0.592476428942746	0.75066553859721	52.1171749663057
247234.4	0.434546170810093	-0.517075447040428	0.675423861362458	49.9565683096013
210843.7	0.398312904859997	-0.421683161405714	0.580060219969553	46.6325135541041
179812.5	0.421962147568734	-0.352419702191637	0.549774226818301	39.8683858191738
153343.8	0.41829913859023	-0.325086612863331	0.529769266009536	37.853029693113
130781.2	0.392458169044904	-0.256350768476926	0.468763406153669	33.1522719474755
111531.3	0.405893849304524	-0.244732315481401	0.47396595146079	31.0877331242806
95109.37	0.373898628522904	-0.229631956250474	0.438783568223251	31.5564011415417
81109.37	0.380408397378925	-0.169204608199589	0.416342104803704	23.9793666164577
69171.88	0.350443534763201	-0.165606782722593	0.387603247588375	25.2937031505981
59000	0.364943652418473	-0.14715289632443	0.393494401913425	21.9603206421962
50312.5	0.338385276246574	-0.110898667151545	0.356094242520796	18.14547023939
42906.25	0.363193057198375	-0.110627288826612	0.379667741361086	16.9405457258079
36593.75	0.349830909286191	-0.10131785155859	0.364207320267525	16.1520469377268
31203.13	0.360709383003234	-0.0955077213899405	0.373139362479587	14.8303135184513
26609.38	0.364474244997214	-0.0742360746366589	0.371957618612321	11.5125211916549
22703.13	0.340194548128092	-0.0637802974841718	0.346121737143518	10.6186497354714
19359.37	0.357068837984392	-0.0693130639463247	0.363734045551349	10.9854515863362
16500	0.361435312392912	-0.0523197315934333	0.365202463516569	8.23666364588422
14112.02	0.335523986615085	-0.0396177354893533	0.337854866117664	6.7341448535111
12011.13	0.337642777016107	-0.051882094556535	0.341605615595999	8.73572707417702
10236.38	0.33255612029904	-0.0294769671897301	0.333859947797057	5.0653210503967
8750.684	0.35212801200865	-0.0375638958449777	0.354125942444515	6.08910323817487
7449.463	0.350861132829429	-0.0286779233004436	0.35203118869665	4.67273036917306
6363.206	0.349682493274779	-0.0265776386613296	0.350691056315496	4.34641257019661
5414.761	0.325268617878433	-0.0281080005047033	0.326480831702136	4.93892999853761
4620.567	0.339741446690995	-0.0339450801988588	0.341433037460345	5.70574004224182
3941.215	0.329833012090883	-0.03286715485031	0.331466537878107	5.69061624828154
3361.769	0.341415035155318	-0.0276122294140805	0.342529796431381	4.62378086586165
2867.244	0.337172054408793	-0.0134642869298355	0.3374407819111	2.28677654685465
2442.658	0.323200300151607	-0.0121318354525142	0.323427913837899	2.14967863267795
2083.003	0.33328730236968	-0.0166377973896422	0.333702325767797	2.85784931083949
1777.843	0.322258582791505	-0.0116209277117625	0.322468045151255	2.06524126945173
1513.548	0.319179321552239	-0.0213761160260851	0.319894322617499	3.83149826450151
1292.065	0.323253097827587	-0.00836542322775911	0.323361323539027	1.48241885996214
1101.762	0.319061819478418	-0.00785792072426016	0.319158568061375	1.41080715697991
939.101	0.31494380339288	-0.0166741527512059	0.315384886552199	3.03059608607143
801.2801	0.314360935152259	-0.00936341451165611	0.314500351480122	1.70608210261617
684.3433	0.312180133828859	-0.0146341092657291	0.312522948135662	2.68389703240659
582.9476	0.311102967816726	-0.0116342426268183	0.311320433293214	2.14167842298454
497.0677	0.316369800337493	-0.00855758927377856	0.316485517677766	1.54943429551182
423.5089	0.310441112879532	-0.0126563659695785	0.310698999299062	2.33459732330965
361.5036	0.317897956343592	-0.0112211553419607	0.318095936746511	2.02158589616732
308.1262	0.313619609434169	-0.0160912206975574	0.314032142949059	2.93716099363048
262.7298	0.312747844425414	-0.0086744865826111	0.31286812063586	1.58876899406314
224.2111	0.314601680887868	-0.0122941442779895	0.314841807263584	2.23789121481629
191.2854	0.311810076936501	-0.0106786282369693	0.311992880015186	1.96145454852614
163.1722	0.310588816185093	-0.0138218928372455	0.310896216543176	2.54810832679177
139.1537	0.310671359358781	-0.0123286766411563	0.310915888615482	2.2725322431099
118.6706	0.30845290049311	-0.0152429181736853	0.30882930297668	2.82910287234219
101.1982	0.3024934963585	-0.0120056643521763	0.302731649015637	2.27281929496526
86.24196	0.302607119720215	-0.0124123420932663	0.302861577526112	2.3488422000122
73.61024	0.292371837022194	-0.00904090628946226	0.292511587924764	1.77117182701642
62.69291	0.267252007966742	0.0210194974558522	0.268077330327561	-4.49708270862437
53.57697	0.299619857639376	0.00225874236551149	0.299628371501956	-0.431927155944126
45.65746	0.283957015462679	-0.00548465003760715	0.284009978726993	1.10653448212892
38.96512	0.313496717270471	-0.00846642175941485	0.313611020273156	1.5469774524863
33.18414	0.297990250555793	-0.0102250728250076	0.298165627698065	1.96524466434093
28.30617	0.31121933447908	-0.0157381033802017	0.311617011813552	2.89493400412933
24.17237	0.3108363731982	-0.000484661439234953	0.310836751044212	0.0893364961492702
20.61345	0.284570100190823	-0.00326252570255905	0.284588801600792	0.656853140282854
17.55618	0.281629772243828	-0.00217971263769273	0.281638207211475	0.443439768809028
14.98558	0.296159807610321	-0.00413885691066428	0.296188726625963	0.80066096319833
12.76553	0.289930273258143	-0.0145839539976511	0.29029683957244	2.87964176057729
10.8809	0.296371925289537	-0.00703461762252617	0.296455399588069	1.3597044782744
9.278505	0.295099742824886	-0.00911106427869788	0.295240359211956	1.76841819185302
7.923394	0.294797090688096	-0.0116981437363477	0.295029102369651	2.27241994338206
6.75822	0.297168835100103	-0.0131121710874784	0.2974579728052	2.52645968946055
5.761429	0.280865288508579	-0.00267307958677825	0.280878008472512	0.545284735766918
4.919708	0.293452539722563	-0.00752384311154466	0.293548975955955	1.46868735344403
4.191257	0.283144209837311	0.000348943136839983	0.283144424853657	-0.0706105165310095
3.564097	0.295906134940292	-0.0171768832602895	0.29640426112632	3.32220123702988
3.051758	0.290809716712035	0.0070553747787932	0.29089528983365	-1.38978820026554
2.604164	0.28224930248799	-0.00399297909500154	0.282277545399931	0.810508961781038
2.214424	0.286745700548939	-0.0119367622242532	0.286994047108473	2.3837548103007
1.892567	0.291422250801336	-0.00435723591952074	0.291454822857634	0.856601124568132
1.607507	0.29433433064638	0.000492388829052066	0.294334742502158	-0.0958494219980813
1.376413	0.284036682641919	0.0111977500677618	0.284257324783032	-2.25763705930989
1.17375	0.281745102613973	-0.00209707653986453	0.281752906953899	0.426454320380816
1.001604	0.271586331156934	0.00537187955624837	0.271639452880562	-1.133142069177
