EC-Lab ASCII FILE
freq/Hz	Re(Z)/Ohm	-Im(Z)/Ohm	|Z|/Ohm	Phase(Z)/deg
6999984	34.0903099975883	82.4088974918323	89.181700037345	-67.5264566071588
5969734	34.7246186179197	79.8314735640436	87.0566672321343	-66.4922104911682
5091109	36.34593372146	82.2713142299036	89.9421816680043	-66.1650515901484
4341796	40.9094217962976	87.162100107511	96.2850584818805	-64.8570462396443
3702781	49.6909758314497	91.2490569703428	103.901797275401	-61.428867864038
3157797	57.2462057522997	96.2218744846783	111.963285064256	-59.2499093691555
2693047	67.290133382533	102.534602631274	122.643005456457	-56.724408811044
2296687	80.35099763749	108.94965362955	135.374701651892	-53.5910114914546
1958656	95.0128058854267	112.951958310555	147.599384038048	-49.9301606848237
1670375	111.02471797546	115.498414767005	160.207277659979	-46.1314103960607
1424531	127.777393188042	115.832539999642	172.465183537722	-42.1928813235975
1214875	143.974566413712	113.905394784584	183.584080832321	-38.3492627098978
1036062	160.237754596434	109.573766065318	194.119932536162	-34.3650975490525
883578.1	173.565763656168	104.204004636132	202.44394013098	-30.9794211826891
753531.2	185.816216299033	95.9731792198536	209.137556094679	-27.3161353054288
642624.9	200.12072559378	92.0675989966837	220.283334814949	-24.7052812245767
548046.8	210.055231048918	83.2647070856435	225.956215973521	-21.6230948727161
467390.6	214.688980803743	72.1691802966692	226.494479101021	-18.5804254199857
398593.7	222.555152885792	67.7339004462092	232.634213618021	-16.9274479106112
339937.5	226.376190832819	57.7566981236723	233.627943435981	-14.3128638745128
289906.2	231.299817668836	54.1939641645313	237.563868055526	-13.1866351140918
247234.4	233.199109673636	45.0125513708156	237.503588464441	-10.924987350216
210843.7	235.613145320111	40.8888149295769	239.134793440815	-9.84517963035655
179812.5	237.82657727182	37.9934315723474	240.842234044347	-9.07645934536338
153343.8	241.854896563918	35.7043224039263	244.476153500228	-8.39775072998525
130781.2	242.97769377145	30.7766851955145	244.919096891436	-7.21890725523744
111531.3	243.799596904958	30.2669564641922	245.671186964661	-7.07688247698041
95109.37	245.195928825328	27.650948525337	246.750113408011	-6.4341097745129
81109.37	245.739722660777	26.9512551565272	247.213230729886	-6.25884198498238
69171.88	247.320375021566	26.12521476377	248.696390700109	-6.02996826413942
59000	248.451411812777	25.4889452035778	249.755461120179	-5.85755380442865
50312.5	249.393570592811	26.1671224415661	250.762579644379	-5.98972943818738
42906.25	250.594234921571	26.6290167240154	252.005109288711	-6.06568645308788
36593.75	251.715108853714	27.6215276104383	253.226074512029	-6.26219951766185
31203.13	253.205522400135	28.8792118345086	254.847102102629	-6.50672071588983
26609.38	254.349551040953	31.0357909239612	256.236052172621	-6.95685354847846
22703.13	255.84883555791	33.5145686477685	258.034596455562	-7.462889873138
19359.37	257.353751859774	36.3380139981238	259.906531002263	-8.03695920639137
16500	259.116453655248	39.7812023330463	262.152399595989	-8.72826143410647
14112.02	261.00329558312	43.7331646811867	264.641852317961	-9.51199894291002
12011.13	263.163497254049	48.3754282395032	267.572809426401	-10.4159831041777
10236.38	265.574060561788	53.7783750765353	270.964380074483	-11.4475191297974
8750.684	268.028983591333	59.6792536910549	274.592697219217	-12.5526916912473
7449.463	270.749761507319	67.0242601118085	278.92236339133	-13.9040814059987
6363.206	273.837737687117	74.8748612499968	283.889681793483	-15.2924727351597
5414.761	276.983695199643	84.5876014268786	289.611860464314	-16.9820622476431
4620.567	280.401579836071	95.2945570309803	296.152154431291	-18.7703437403377
3941.215	285.078322577579	107.474123561511	304.664302534709	-20.6563718328816
3361.769	289.051516625315	121.321840293663	313.480092183915	-22.7689588967762
2867.244	294.16266651302	137.450922312932	324.691284784064	-25.0448790393287
2442.658	300.177553271563	155.836041689227	338.218029350105	-27.4359121325009
2083.003	306.3437242174	176.98713584735	353.79503052309	-30.0167604136221
1777.843	313.282913647069	200.528714157096	371.964983815271	-32.6228302968849
1513.548	321.418418553992	228.19823422423	394.188069186278	-35.3737038037111
1292.065	330.512834149179	260.207012973018	420.65000075795	-38.212744056052
1101.762	340.769917120288	295.684743884615	451.169152514086	-40.9480502995845
939.101	352.5653222033	336.989516880396	487.713277354225	-43.7060112943365
801.2801	366.232134264338	383.924356081624	530.58824653445	-46.3510537668241
684.3433	380.764409054315	436.146750711773	578.969363057251	-48.8784221673477
582.9476	399.04802099005	498.523314294287	638.564654479901	-51.3241211637534
497.0677	419.27400788706	568.454607268655	706.350716156386	-53.5886967419623
423.5089	440.9125032999	650.079733342072	785.498246508727	-55.8531634581901
361.5036	468.905979621348	739.253937408188	875.425154823738	-57.6131981315848
308.1262	500.147633878458	843.290907568229	980.452553906341	-59.3282326997499
262.7298	537.155159916355	962.392957725715	1102.15056634963	-60.8321323204093
224.2111	576.255201086775	1095.39140731503	1237.72064376383	-62.2523801029796
191.2854	623.82420650016	1247.67736586149	1394.93922803061	-63.4354806541452
163.1722	678.817004578492	1421.60559041936	1575.35868309934	-64.4755136438667
139.1537	742.614390316421	1618.9754474399	1781.16749131525	-65.3593583386355
118.6706	813.7602420039	1843.42378147898	2015.04763457059	-66.1814381830892
101.1982	899.930214897861	2100.81454156498	2285.45315632086	-66.8110615041584
86.24196	999.652134409305	2392.7182042573	2593.14573343138	-67.3253484210679
73.61024	1112.0313214956	2716.32507581887	2935.13808491349	-67.7363883432947
62.69291	1244.06493657988	3089.34933108515	3330.43193233307	-68.0656098923769
53.57697	1393.59936996958	3499.20120859616	3766.50080342756	-68.2844797701169
45.65746	1570.86570745532	3972.5645710228	4271.8717609269	-68.4247398383649
38.96512	1770.22749052077	4497.12886240897	4832.99838333382	-68.5136628881692
33.18414	2002.90085178566	5099.66094169147	5478.88250853195	-68.5574941594967
28.30617	2270.64835910524	5767.34408170681	6198.23375870142	-68.5100532540599
24.17237	2573.57692278208	6516.26734520918	7006.07153058802	-68.4486321784219
20.61345	2920.92824223616	7363.0871560408	7921.29246169751	-68.3618290724595
17.55618	3312.69400684479	8307.76900696756	8943.87877020458	-68.2605301342804
14.98558	3753.29670653181	9365.31318809353	10089.4165975214	-68.1607781821481
12.76553	4252.84980350617	10556.161270914	11380.6534183555	-68.0565571592138
10.8809	4826.74033678569	11891.4821876921	12833.7356564233	-67.9078173155979
9.278505	5456.4387532785	13381.6778055061	14451.3675739929	-67.816602434613
7.923394	6113.29082591343	15024.5413201997	16220.6401416401	-67.8592304945708
6.75822	6927.08807918916	16951.3758664863	18312.1187475327	-67.7728857548446
5.761429	7808.54021461595	19122.5868981964	20655.4261626902	-67.787782657518
4.919708	8796.93724460553	21457.2224104666	23190.4829285153	-67.7075685661997
4.191257	9804.24816707191	24175.4227422296	26087.8198952508	-67.9251779367903
3.564097	11045.6633885427	27352.529029922	29498.6020690086	-68.0098610989107
3.051758	12338.5783209372	30712.5030722646	33098.3135513846	-68.1124778400186
2.604164	13825.692443116	34687.3020201045	37341.1126369526	-68.2687234307508
2.214424	15388.6259379367	39218.8968637059	42129.9380424864	-68.5760579920589
1.892567	17407.330903094	44281.5004470139	47580.1056220844	-68.5399043551862
1.607507	19551.5434479931	50264.3803780749	53933.0212948483	-68.7452524289611
1.376413	21919.9410551317	56616.4792885718	60711.691978512	-68.8353213943556
1.17375	24710.0442028491	64072.8944631637	68672.5715944472	-68.9106080486358
1.001604	27762.9800014333	72510.0217820467	77643.3275780531	-69.0489200603804
