EC-Lab ASCII FILE
freq/Hz	Re(Z)/Ohm	-Im(Z)/Ohm	|Z|/Ohm	Phase(Z)/deg
6999984	7.01369642545218	-5.44329232810848	8.87813994695089	37.8148477856454
5969734	3.58347392171391	-3.55725544923336	5.0492921958136	44.7896291835335
5091109	2.63101241118924	-0.462511940851403	2.67135613561014	9.97029069450131
4341796	1.86584154679469	-0.705006615997569	1.99459244116324	20.6990285407291
3702781	1.29149382005003	-0.606871089771294	1.42697190120465	25.1687639737919
3157797	1.10624806137926	-0.444611074356475	1.19225155933879	21.8956394367039
2693047	0.99448570318119	-0.323013908873176	1.0456289012634	17.9940546828708
2296687	0.938339839324399	-0.223134474404372	0.964505390203214	13.3763299809037
1958656	0.918427686762259	-0.154143349178236	0.93127310060334	9.52738285970928
1670375	0.91103339995707	-0.105214135691214	0.917088801690757	6.5878343509465
1424531	0.913319107926987	-0.0716300771619924	0.916123714821738	4.48443180050788
1214875	0.916795308681672	-0.0539023714944247	0.918378518734757	3.36479377360432
1036062	0.914219730538147	-0.0474320026849004	0.915449348999682	2.96998517275573
883578.1	0.916633988550139	-0.0346576853156682	0.917288953447482	2.16530662949794
753531.2	0.910982173147657	-0.0226954832208138	0.911264837877252	1.42712614090083
642624.9	0.910182749241105	-0.0181094554928815	0.910362888849465	1.13983536213972
548046.8	0.909584480126074	-0.0129671506593886	0.909676906094929	0.816760504283711
467390.6	0.912010665851712	-0.00927906195158967	0.912057868568647	0.582923823019329
398593.7	0.910713450961734	-0.00705287079633296	0.910740760452227	0.443708887085401
339937.5	0.911831678279684	-0.00453038361162381	0.911842932686334	0.284668465524357
289906.2	0.913273358322813	-0.00558286482968658	0.913290422265522	0.350246292670276
247234.4	0.914072094325284	-0.00553765634686261	0.914088868361292	0.347106598544518
210843.7	0.912970421051285	-0.0040330374626946	0.912979328958622	0.25310187146364
179812.5	0.915837516415799	-0.00764598760970347	0.915869432616455	0.478330091039299
153343.8	0.915732931166722	-0.00453880883366381	0.9157441793475	0.283982864226704
130781.2	0.914560857002489	-0.00561301396780231	0.914578081459932	0.351641960563435
111531.3	0.913570063349319	-0.00547003962755368	0.913586439250062	0.343056818256975
95109.37	0.911916197455375	-0.00146236374651159	0.911917369989846	0.0918803714638715
81109.37	0.908561010316984	-0.00346191585713541	0.908567605811269	0.218314681636493
69171.88	0.910906426896412	-0.00427470482138477	0.910916457015954	0.268875857929828
59000	0.908466448798458	-0.00123971770569395	0.908467294674096	0.0781873104138195
50312.5	0.910989217144253	-0.002372678603	0.910992306969083	0.149226972333382
42906.25	0.910547180885972	-0.000297762505916824	0.910547229572361	0.0187365736078927
36593.75	0.910136631475621	0.000451400775166792	0.910136743416312	-0.0284170049538373
31203.13	0.909010535978435	0.000717359993951463	0.909010819036365	-0.0452158582169093
26609.38	0.909150681720859	0.000316332173840138	0.909150736753563	-0.0199356367632306
22703.13	0.909993419671731	0.000429904947262228	0.909993521220956	-0.0270680388505592
19359.37	0.909590718098564	0.00150705130275582	0.909591966573304	-0.0949301685115734
16500	0.911161491992861	0.00141276795941226	0.911162587249917	-0.0888377936843883
14112.02	0.910320355147166	0.00201918307054477	0.91032259452105	-0.127087653946409
12011.13	0.910915644262855	0.00163277704978458	0.91091710760294	-0.102700106467122
10236.38	0.911159944516993	0.00219823047831236	0.911162596197543	-0.138229391230523
8750.684	0.911352159444731	0.00227247863508417	0.911354992680526	-0.142868114835682
7449.463	0.911650769326905	0.00247130804725597	0.911654118938648	-0.155317341808284
6363.206	0.912080896898961	0.00226468966405706	0.912083708497903	-0.14226467568585
5414.761	0.912490588269694	0.00243381070582037	0.912493834014962	-0.152819933370868
4620.567	0.913003534391421	0.00242518868915087	0.913006755370082	-0.152193002951436
3941.215	0.913098432470798	0.00254337834446281	0.913101974674259	-0.159593383129125
3361.769	0.913407369943275	0.00247697869712829	0.913410728473317	-0.1553743511089
2867.244	0.91350501854526	0.00233998933068839	0.913508015540884	-0.146765717532838
2442.658	0.913951177232327	0.00240707878094693	0.913954346995852	-0.150899894503605
2083.003	0.914360925607615	0.00228539228790962	0.914363781706123	-0.14320719125884
1777.843	0.914369778780189	0.00217341625323486	0.914372361833373	-0.136189260409401
1513.548	0.914481342806813	0.00197685385870626	0.91448347950793	-0.123857317897461
1292.065	0.914647991698087	0.00204762587976422	0.914650283709073	-0.128268061595937
1101.762	0.914881188392214	0.00151415994036436	0.914882441384835	-0.0948264058548752
939.101	0.914932112791417	0.00160681915243234	0.914933523751729	-0.100623707417568
801.2801	0.914820724738259	0.00145073947335652	0.91482187504216	-0.0908606211800977
684.3433	0.915019728767414	0.00132138182388163	0.915020682871986	-0.0827408924906217
582.9476	0.915185635092855	0.00114910951766491	0.915186356505054	-0.0719406953481852
497.0677	0.915091431895824	0.000987983423786095	0.915091965236497	-0.0618596748301969
423.5089	0.915143707304007	0.000811995053168079	0.915144067540236	-0.0508377831280904
361.5036	0.915245538665844	0.000721365381551008	0.91524582294362	-0.0451585738965521
308.1262	0.915102673594578	0.00064964403402674	0.915102904190187	-0.0406750588285165
262.7298	0.915141500804041	0.000671914398316833	0.915141747470211	-0.0420676499383158
224.2111	0.915136204247623	0.000605039369646098	0.915136404257522	-0.037880915549002
191.2854	0.915227097029751	0.000526480052548285	0.915227248457317	-0.0329591221451589
163.1722	0.915116635266538	0.000566670217300751	0.915116810716908	-0.0354794202464907
139.1537	0.91527523034923	0.000334245532073671	0.915275291380092	-0.0209236050781086
118.6706	0.915160584711858	0.000358706544185474	0.915160655011203	-0.0224576651971037
101.1982	0.91508217007025	0.000430230946910768	0.915082271207975	-0.026937925864863
86.24196	0.91510526617805	0.000274189887752257	0.915105307255342	-0.0171673396098545
73.61024	0.915149136927753	0.000235940918748018	0.915149167342531	-0.0147718202571464
62.69291	0.915136488798146	0.000221043810562382	0.915136515493817	-0.013839331445571
53.57697	0.915238284190607	0.000188807437086542	0.915238303665452	-0.0118197297022482
45.65746	0.915067264281694	0.000306432795553986	0.915067315589974	-0.0191869012461316
38.96512	0.915066761851919	0.000119365701413457	0.915066769637236	-0.00747393649942812
33.18414	0.914960431345323	0.000291734319956434	0.914960477854937	-0.0182687077315447
28.30617	0.914981592787185	0.000280333258645789	0.914981635731619	-0.0175543554117315
24.17237	0.91492110981346	-4.92880994213072E-05	0.91492111114107	0.00308660500237665
20.61345	0.914842921244049	0.000163994926787409	0.914842935942931	-0.010270852894671
17.55618	0.915008618470656	8.63594103761299E-05	0.915008622545999	-0.00540763182030863
14.98558	0.914834224228347	6.49432949296305E-05	0.914834226533482	-0.00406737811326333
12.76553	0.914901929536833	0.000172038801289181	0.914901945711982	-0.0107739384866857
10.8809	0.914797060984494	1.39450657710511E-05	0.914797061090783	-0.00087341056036168
9.278505	0.914690261138635	0.000146287512339462	0.914690272836604	-0.00916338277246267
7.923394	0.914759592524245	0.000247107856729554	0.914759625900387	-0.0154775495621429
6.75822	0.914491800021289	7.25173891999249E-05	0.914491802896532	-0.00454344186974399
5.761429	0.914612949940668	-1.04887172874729E-05	0.91461295000081	0.000657063988751462
4.919708	0.914527227171376	8.8219101039852E-05	0.914527231426367	-0.0055269892422747
4.191257	0.914579057889601	0.000118446219870441	0.914579065559527	-0.00742031910895978
3.564097	0.914554147415227	5.33560310115117E-05	0.914554148971649	-0.00334269479144612
3.051758	0.914818358523724	4.62774314883841E-05	0.91481835969423	-0.00289839123146515
2.604164	0.915062644248554	7.18645272694459E-05	0.915062647070498	-0.00449972920068008
2.214424	0.915591136276678	-6.77147766491741E-05	0.915591138780684	0.00423744917559201
1.892567	0.915837091359487	3.65303878923785E-05	0.915837092088039	-0.00228538139462351
1.607507	0.916031705938406	-1.93173865414974E-05	0.91603170614209	0.00120826027386542
1.376413	0.916471760587522	5.8007319492288E-05	0.916471762423285	-0.00362648880878355
1.17375	0.916193541656902	3.10181354898036E-05	0.916193542181968	-0.00193977382555839
1.001604	0.915095093643366	-1.06469758488551E-05	0.915095093705304	0.000666626654352196
