EC-Lab ASCII FILE
freq/Hz	Re(Z)/Ohm	-Im(Z)/Ohm	|Z|/Ohm	Phase(Z)/deg
6999984	22.6810835367548	91.2135341953898	93.9911717706232	-76.0360830762213
5969734	23.4076048241771	88.7269271927493	91.7626480256116	-75.2211652042067
5091109	22.0898173078044	93.2363601223596	95.8174247074012	-76.6710922005648
4341796	23.644229179766	101.426187629047	104.145672547965	-76.877700781489
3702781	28.7711487043325	110.920902153808	114.591559603583	-75.458828097627
3157797	32.2336502196866	122.22729749214	126.406172549908	-75.2263791201424
2693047	37.3191413849706	137.60561971388	142.576382653483	-74.8261681002435
2296687	44.8102387714684	156.054138944163	162.360253080488	-73.9788208170246
1958656	55.3167873170824	176.168424011063	184.649019974721	-72.5677403591764
1670375	68.6460789972761	199.272206488602	210.764552144179	-70.9919918310076
1424531	85.3800129799939	225.525827617481	241.146522966876	-69.2642375997906
1214875	103.976122030562	252.008458788006	272.615658488687	-67.5794552032084
1036062	133.58222550819	274.190476715416	304.999390971765	-64.0252261126734
883578.1	167.038231315943	311.953706463018	353.85998035547	-61.8328031096053
753531.2	202.743945435774	336.958160801896	393.250441248145	-58.9651493449755
642624.9	247.436467119154	363.25648377773	439.522557176498	-55.738801082282
548046.8	298.48375307866	384.283511727997	486.586444774126	-52.1625131166344
467390.6	427.01084052742	413.159823334894	594.171101237728	-44.0555098197883
398593.7	485.896082159486	410.870073157451	636.324775310806	-40.217609324884
339937.5	543.309108482142	402.001126951292	675.862185234363	-36.4981965020128
289906.2	596.415866303321	389.041139997114	712.084892543434	-33.1163474937208
247234.4	646.965984845142	369.330009660449	744.962845773151	-29.7205183152276
210843.7	691.076830969315	346.996168849049	773.300412193417	-26.6616570752068
179812.5	731.804548683714	324.68143841989	800.597235773759	-23.9255372316052
153343.8	765.025741597745	298.403779872602	821.163321848605	-21.3086269868585
130781.2	794.467904238857	273.732886145062	840.302888143905	-19.0113240593917
111531.3	819.709364268115	249.857424783982	856.94350723284	-16.9518616422617
95109.37	841.241534509403	228.182039041678	871.638894453978	-15.1760076041435
81109.37	859.806883714399	207.501685595994	884.491281363386	-13.5680473887324
69171.88	874.006087282785	188.533324590531	894.109308243977	-12.1728493209653
59000	888.344096072225	171.543643236809	904.75546672089	-10.929571012577
50312.5	899.694296082954	159.172519009078	913.666086276545	-10.0328634153075
42906.25	910.34196952699	141.053784725066	921.205010661332	-8.80770776197931
36593.75	917.019151249375	131.59917592588	926.413766554931	-8.16661955542948
31203.13	924.213842203591	129.441444578271	933.234329466739	-7.97274209671311
26609.38	928.540923120349	120.26362686559	936.296740278452	-7.37980526326608
22703.13	935.99094081146	114.710284312671	942.993897439541	-6.98703696512595
19359.37	941.493479345583	106.155743850652	947.459241130053	-6.43307272090371
16500	948.865820614126	104.461166466379	954.598596703994	-6.28242492782996
14112.02	952.295010613472	107.490819915814	958.342351983615	-6.44003415811455
12011.13	957.822607895766	106.809583794444	963.75953193034	-6.3629312276238
10236.38	965.534262717078	109.31299078523	971.702496875985	-6.45923970340734
8750.684	970.996582739983	115.745640678738	977.870859075397	-6.79774889834858
7449.463	976.877683240844	122.539733220671	984.533389089366	-7.14984865219032
6363.206	983.515899043996	129.686550941163	992.029296526738	-7.51169441812724
5414.761	990.886495556249	139.873577260109	1000.71008023867	-8.03478769634783
4620.567	998.714216883858	151.135190912932	1010.08511172981	-8.60526458422574
3941.215	1005.98536485864	165.890843504244	1019.57163861512	-9.36402113316158
3361.769	1016.00151768555	181.706832382689	1032.12230712929	-10.1398632835482
2867.244	1024.98446297465	200.964474175291	1044.49981772138	-11.0930301419499
2442.658	1036.26528163913	224.357136208791	1060.27442603245	-12.216302440148
2083.003	1047.29168692002	248.990678844291	1076.4832723471	-13.3736256201107
1777.843	1059.9151075983	278.449864173546	1095.88063317744	-14.7195378583407
1513.548	1074.496840521	309.586247925287	1118.20709405461	-16.0728584408618
1292.065	1088.53372623667	348.609399549897	1142.99351993318	-17.7579731529651
1101.762	1105.07759645924	391.89308131258	1172.50871270827	-19.5260063171798
939.101	1124.98322528976	440.441075035441	1208.12896569933	-21.3807910211553
801.2801	1143.26171088196	495.97973243201	1246.21155288822	-23.4525834900365
684.3433	1163.79573414087	558.826911837239	1291.01046788864	-25.6492062737429
582.9476	1188.57309840789	633.394731793572	1346.80915371213	-28.0533085342221
497.0677	1215.57471012676	717.572902687143	1411.57102073208	-30.5540229381162
423.5089	1251.20274010265	814.598922542184	1493.01028176207	-33.0662480641146
361.5036	1278.99069442219	923.510901691981	1577.55810731728	-35.8316288623135
308.1262	1316.52637042445	1050.62157482702	1684.35369727234	-38.5907586909675
262.7298	1359.41756413554	1194.90707291796	1809.92238137153	-41.3149724715863
224.2111	1407.10989753892	1360.25459485562	1957.10266122598	-44.0299960091712
191.2854	1459.51628908622	1543.79490475508	2124.49770676642	-46.6074065435215
163.1722	1523.87130866158	1765.76674831858	2332.40561970458	-49.2055352317438
139.1537	1595.85937498674	2011.72600069639	2567.84124248579	-51.5757814161087
118.6706	1677.95750042872	2294.23098779154	2842.36471948762	-53.8189627502474
101.1982	1770.06276267986	2617.54859010805	3159.85487093988	-55.9322946592756
86.24196	1873.82077659447	2982.19755423418	3522.03159487211	-57.8573927438696
73.61024	1997.98792462795	3406.60217116681	3949.29032859798	-59.6081798784508
62.69291	2144.53526632506	3889.27446676058	4441.33846788417	-61.1277785426968
53.57697	2300.75143939757	4430.53810833503	4992.30659267827	-62.5574228331072
45.65746	2495.52418466203	5058.73389341824	5640.78270815776	-63.7424141449968
38.96512	2711.28484420472	5763.30903820404	6369.20690323832	-64.8058811085391
33.18414	2967.90416155035	6577.52230916485	7216.11078349753	-65.71419110116
28.30617	3262.41332649723	7497.76787989063	8176.78811597967	-66.4852777018471
24.17237	3597.84170113492	8523.82444928182	9252.02940703281	-67.115760459609
20.61345	4001.15677663732	9711.79052784262	10503.7198557427	-67.6088479380986
17.55618	4462.22592353915	11066.1231403273	11931.9127364221	-68.0390819464623
14.98558	4996.68060428088	12565.8367962712	13522.8351854085	-68.3152476037154
12.76553	5634.72188636609	14291.2652024626	15361.9774711399	-68.4818064347599
10.8809	6344.88442580296	16227.9208132979	17424.2065041557	-68.6452139979312
9.278505	7173.70564540458	18398.3968696042	19747.4823726563	-68.6987282559965
7.923394	8176.58011099928	20876.7168208221	22420.8333370636	-68.6116959669161
6.75822	9227.92163817922	23573.6014893153	25315.3950183959	-68.6220665030079
5.761429	10511.1760763638	26657.5499873598	28655.0134154027	-68.4804886318311
4.919708	11940.1457860015	29973.4691196086	32264.158635475	-68.2797815161968
4.191257	13555.6683183518	34006.0808629201	36608.3280035107	-68.2665461911293
3.564097	15426.1658427146	38365.0103475622	41350.2190027512	-68.0954609935032
3.051758	17410.2863221197	43128.3622014845	46509.9311545462	-68.0167938882317
2.604164	19759.7950768024	48489.2956713442	52360.8756246519	-67.8286918440903
2.214424	22420.760472676	54753.0793201153	59165.7856806445	-67.7314609062566
1.892567	25241.7352086239	61432.4826281866	66416.0757513174	-67.662935153959
1.607507	28613.24475223	69315.5421095533	74989.0802263388	-67.5693138502346
1.376413	32088.8746233365	77804.5092513234	84161.9720208092	-67.5873047250017
1.17375	36115.0843132829	87502.1338921272	94662.1505704962	-67.5724078223283
1.001604	40645.9554822001	98628.0358396552	106675.129016324	-67.6027745854702
