EC-Lab ASCII FILE
freq/Hz	Re(Z)/Ohm	-Im(Z)/Ohm	|Z|/Ohm	Phase(Z)/deg
6999984	36.2824091795936	80.8603073084725	88.6273237432795	-65.8339965761218
5969734	36.5351764534307	78.2045132530188	86.3178139877564	-64.9592046145161
5091109	38.7448570156746	80.3633570809218	89.2156550526914	-64.2603106960155
4341796	45.4112905927667	85.4255588682881	96.7456015602779	-62.0053779974987
3702781	54.4679378499315	87.3884516509551	102.973286514393	-58.0653191277225
3157797	62.2983407471265	91.1622479907581	110.41575394197	-55.6521297566126
2693047	71.9861116178794	97.4417665894761	121.148248612763	-53.544481588912
2296687	84.8821111436472	99.6543008955933	130.904363866114	-49.5767832350988
1958656	98.7534893509469	102.109915156619	142.051703376902	-45.9573228995881
1670375	113.799042581533	101.728199859451	152.63960409775	-41.7944350137077
1424531	127.959846298374	99.5785594953434	162.140715971872	-37.8901115216138
1214875	141.710160963532	95.204457596692	170.720995974691	-33.8942007259684
1036062	153.840853053345	89.5154307937138	177.988821048865	-30.1938559385191
883578.1	165.125439055329	83.3650331551686	184.976050817876	-26.7873296379908
753531.2	174.085883702845	76.3533530350604	190.094001547385	-23.6820588165644
642624.9	181.927178832954	69.1783830364531	194.635934702859	-20.8194642692656
548046.8	188.32890115895	62.0668170367485	198.292876293655	-18.2404666418227
467390.6	193.347038520863	55.3108718101883	201.102883731664	-15.9642600203727
398593.7	197.378879196029	49.2274293175326	203.425076502119	-14.0041943215419
339937.5	200.540591757889	43.7688700929575	205.261401466078	-12.3119863919348
289906.2	203.009464896153	38.8205693640946	206.687879284623	-10.8257166826316
247234.4	205.069381043096	34.5994013854916	207.967712921099	-9.57677755122751
210843.7	206.361288510968	30.9197270536425	208.6648291327	-8.52140648133039
179812.5	207.762479556131	28.1512773122255	209.661017658557	-7.71643515663929
153343.8	208.957665572322	25.7972980583503	210.544072793669	-7.03795572437922
130781.2	209.785152001245	23.7384239295027	211.123951201284	-6.45589362988377
111531.3	210.547792337736	22.4409565879937	211.740334822817	-6.08382629688172
95109.37	211.26242645151	21.2630136373874	212.329763761757	-5.74731672464548
81109.37	212.180655976712	20.5510591453712	213.17358373566	-5.53220774187275
69171.88	212.696109936426	20.4071668942099	213.672851908557	-5.48047824733936
59000	212.976338256712	20.4444134571729	213.95535678932	-5.48323990391189
50312.5	214.09917763684	21.3266960698576	215.158745650804	-5.68854156810537
42906.25	214.799528217259	22.0788400074108	215.931267996161	-5.8687150222778
36593.75	215.640747566771	23.438188200812	216.910766623726	-6.20317913518542
31203.13	216.643711828522	25.4171369600098	218.129614509547	-6.69148241608566
26609.38	217.630704267224	27.3129248662776	219.337911234239	-7.15329212853906
22703.13	218.71210709891	29.7274051471784	220.723139721303	-7.74022436429312
19359.37	220.109347058392	32.9169431178746	222.557070898	-8.50544387715804
16500	221.540116821198	36.3066752395117	224.495429860158	-9.30707485790353
14112.02	223.153019993595	40.3144670271869	226.765355784229	-10.2405090498409
12011.13	224.942300203081	45.1149978808093	229.421885299634	-11.3409203320133
10236.38	227.126329025228	50.5512369167804	232.683899078326	-12.5477298767414
8750.684	229.47968343919	56.5802905185752	236.351971403915	-13.8505385000437
7449.463	231.970612977323	63.5798041603378	240.526000220646	-15.3275320226438
6363.206	234.744249230581	71.5845482908643	245.416401450344	-16.9589262118757
5414.761	237.88296154789	80.6307724157158	251.176481492894	-18.7241633420501
4620.567	241.026601908952	91.0949133962145	257.666656893049	-20.7038585749421
3941.215	246.054938649612	102.81761681877	266.673011686889	-22.6783169735865
3361.769	250.772897163214	116.238008231711	276.402461112971	-24.8686200328126
2867.244	256.316592437378	131.419274583577	288.043783635028	-27.1452334542972
2442.658	262.090248939886	149.0171946695	301.491994747023	-29.6213507800464
2083.003	268.911455434733	168.618300148167	317.404319455303	-32.0893664825724
1777.843	276.642393084562	190.80878610375	336.063991683042	-34.5952260474668
1513.548	285.735189736495	215.7324295997	358.029439899487	-37.053106126597
1292.065	295.751082755805	244.239018575723	383.564076975495	-39.5507895837549
1101.762	307.720082104715	276.826342472897	413.913605499329	-41.9746875360558
939.101	321.679377150174	313.637448213256	449.27282424541	-44.2747807679849
801.2801	336.839036885858	355.18041745869	489.503488972573	-46.5182199331314
684.3433	355.133588557119	401.885799741487	536.313398821353	-48.5340000479607
582.9476	375.430036727954	454.821144779545	589.754174394831	-50.4621863750704
497.0677	399.100413040749	514.565314629311	651.197821486573	-52.2025972439818
423.5089	427.590613245928	582.413831008455	722.523081351713	-53.7150110174768
361.5036	458.298012116492	657.532058395569	801.489535632152	-55.1236105680721
308.1262	494.588415999268	742.666934573249	892.284638974073	-56.337868564137
262.7298	536.759821063787	837.616559160544	994.843005548301	-57.3475176019826
224.2111	583.58563714245	944.225570652448	1110.01537113362	-58.2815533996049
191.2854	638.432573897535	1063.56767691588	1240.47263363352	-59.0246796598896
163.1722	701.916586972436	1198.61333199574	1389.01433207327	-59.6464534591655
139.1537	774.814368913434	1346.36876143359	1553.39825802624	-60.0802398058591
118.6706	856.63070843678	1511.36536904662	1737.25111869019	-60.4557563447878
101.1982	952.48268924228	1695.78656485293	1944.97181132322	-60.6781212650781
86.24196	1061.25272723102	1904.48243617601	2180.20886631492	-60.8717237040528
73.61024	1185.59274656167	2131.68209089399	2439.20042172385	-60.9181905812379
62.69291	1328.03804979912	2386.77998519341	2731.37396916536	-60.9078200451461
53.57697	1483.4237029129	2659.76644595238	3045.47261182529	-60.850409674074
45.65746	1665.4201107445	2970.13833711625	3405.19395730697	-60.7197180010046
38.96512	1867.48270046095	3305.64352563607	3796.67891124606	-60.5362569150037
33.18414	2100.60872470482	3680.97528451564	4238.17602979407	-60.288051598153
28.30617	2374.63655465113	4089.44552588758	4728.89664466113	-59.8573592235532
24.17237	2645.88108552703	4538.82116295535	5253.72099259573	-59.760185581499
20.61345	2961.70349776909	5032.45138050803	5839.28544480186	-59.5222935049607
17.55618	3323.50692644732	5579.37044146749	6494.23381264214	-59.2186831693209
14.98558	3722.44994549099	6172.98175056832	7208.49063879086	-58.9090567768322
12.76553	4164.45729195115	6832.36749284494	8001.49674084601	-58.636901824145
10.8809	4649.74256349413	7547.85887058719	8865.11587273797	-58.3654917165916
9.278505	5198.23043446596	8320.63008482012	9810.93699185872	-58.0053304465723
7.923394	5780.16742728558	9193.66160048408	10859.7306187432	-57.841922883401
6.75822	6432.53812985209	10151.3174129644	12017.7698434757	-57.6389812323657
5.761429	7140.60649164427	11199.945647421	13282.5842204632	-57.4801573315554
4.919708	7892.95690098077	12377.5122585297	14679.9720146461	-57.4749434156197
4.191257	8776.1935639096	13666.268962522	16241.5664523838	-57.2922672817982
3.564097	9686.50580103517	15112.6832425506	17950.5317309309	-57.3420745029289
3.051758	10699.8272804734	16685.6385016426	19821.6254641102	-57.3295840229951
2.604164	11767.4622949057	18428.6768583543	21865.2532482857	-57.4401075816758
2.214424	13037.8257779176	20452.2267775713	24254.4528113197	-57.4834231909877
1.892567	14324.2854896537	22654.2657389986	26803.0019020682	-57.6948446173909
1.607507	15840.0039850185	25172.3470902036	29741.4321154023	-57.8193483462729
1.376413	17442.2583526858	27915.2517724579	32916.4648460546	-58.0016635166835
1.17375	19173.795890775	31031.3490979504	36477.1034444892	-58.288715372044
1.001604	21109.0725740411	34442.1122226127	40396.1884252856	-58.4964698685585
