EC-Lab ASCII FILE
freq/Hz	Re(Z)/Ohm	-Im(Z)/Ohm	|Z|/Ohm	Phase(Z)/deg
6999984	42.6133861824321	37.9465005852191	57.0599473238202	-41.6845245198677
5969734	41.496802989994	32.2315262892295	52.5438478351526	-37.8373134607925
5091109	42.5088422187406	25.7436118615248	49.6964306409889	-31.19935103235
4341796	41.6434558627813	23.5363739657372	47.8344887675247	-29.4746048295575
3702781	42.0376048916475	18.4503639855392	45.9083451697526	-23.6967379952756
3157797	41.2629138696778	16.31272331251	44.3704068370683	-21.5706806936175
2693047	41.3650367212532	14.2004517691465	43.7346440867932	-18.9471413271812
2296687	41.8011597676055	12.2631980006433	43.5628624302841	-16.3500955291917
1958656	42.1954636422017	10.2866903074171	43.4312462342617	-13.7006985774611
1670375	42.3410111997128	9.03135078707331	43.2934928881162	-12.0407653604538
1424531	42.4566955314188	8.33642976722765	43.267390223025	-11.1087807517381
1214875	42.3681029971407	7.08473724063213	42.956369182522	-9.4930913356707
1036062	42.6382791992509	6.36022078054249	43.110036667237	-8.48407828097761
883578.1	42.7200317533077	5.7725273879409	43.1082728191254	-7.69545917175955
753531.2	42.8154378779413	5.38446372170541	43.1526843921697	-7.16787963400309
642624.9	42.7311225905931	4.93067845069515	43.0146536407821	-6.5821620687747
548046.8	42.8618209915412	4.72490705141565	43.1214615401129	-6.29064687219009
467390.6	42.97149056506	4.50249405851817	43.2067292690622	-5.98154760087291
398593.7	43.1064868399919	4.37898501275914	43.3283361950163	-5.80051012634543
339937.5	43.2276347835342	4.34822076794027	43.4457757765397	-5.74399929901168
289906.2	43.3517802748301	4.41551030576832	43.5760666450919	-5.81569350791639
247234.4	43.4960496538841	4.55936510478624	43.7343588686503	-5.98403423770378
210843.7	43.6604057614249	4.76012073772023	43.9191277314331	-6.22215549736015
179812.5	43.8165224463624	5.07445004787183	44.1093831580189	-6.60607159756551
153343.8	44.0309005015802	5.45655646655391	44.3677158241525	-7.06439772662451
130781.2	44.2548679483988	5.93014794271957	44.6504198384825	-7.63216452413145
111531.3	44.4946066343618	6.51427767382785	44.968942984668	-8.32927081431122
95109.37	44.7756552106075	7.18493367014922	45.3484572106223	-9.11626272339111
81109.37	45.0728075101117	7.89347996228935	45.7587696814354	-9.93332345755947
69171.88	45.4360936674855	8.88497740346397	46.2966676038414	-11.0645025733304
59000	45.8432082530053	9.95752864848834	46.9121745361892	-12.2547650969351
50312.5	46.2735795273059	11.1601632304526	47.6003508978689	-13.5595275063188
42906.25	46.7675576009294	12.5382875555937	48.419139798049	-15.0079533532537
36593.75	47.3125195170466	14.1282347962699	49.3769330913682	-16.6264216146274
31203.13	47.9227410892029	15.9246541582637	50.4993437933908	-18.3815689580296
26609.38	48.6057461609469	18.0069674222839	51.8340567157308	-20.3281529599409
22703.13	49.3606659133544	20.3651285723783	53.3967583396154	-22.419970303762
19359.37	50.2298621900943	23.071418835185	55.2750343528107	-24.6701130751116
16500	51.2034175601433	26.137680555821	57.4888538299081	-27.0428344371514
14112.02	52.2720454721765	29.5817652195746	60.0620310291894	-29.5063638801416
12011.13	53.5103948137485	33.6331709269095	63.2024725760152	-32.1508104765222
10236.38	54.8934111994854	38.2139181768116	66.8849021494376	-34.8436147108119
8750.684	56.4140681011045	43.3449467018577	71.1430353885954	-37.5363616493221
7449.463	58.2200031053673	49.3479360064043	76.3202957913631	-40.2849891615914
6363.206	60.1910900358666	56.0396712911477	82.2399664282865	-42.9544339065736
5414.761	62.4966852568883	63.9252170380401	89.3994912818808	-45.647398569046
4620.567	65.0786847738088	72.7257991459874	97.5924027438165	-48.1762280119472
3941.215	68.0596680175026	82.7595374456673	107.150639050234	-50.5668543050849
3361.769	71.4511629670191	94.2236851311555	118.25130666946	-52.8264394208982
2867.244	75.3458599621698	107.303370669584	131.114499467042	-54.9243874131272
2442.658	79.7774987502767	122.301897586774	146.021243181176	-56.8835994048432
2083.003	84.9118611864525	139.351966188854	163.183928898795	-58.6446367543793
1777.843	90.7617915573604	158.580418527474	182.716862787896	-60.2158016201871
1513.548	97.6643049908531	180.705032109575	205.408434829412	-61.610438189315
1292.065	105.476042099526	205.809042360978	231.262961527616	-62.8651011690925
1101.762	114.507667218498	234.330054080786	260.811387974771	-63.9571014308323
939.101	125.079362250729	266.532994946135	294.42262864122	-64.860140211738
801.2801	137.187839043008	303.061067850945	332.665769246319	-65.6449777995082
684.3433	151.116144343364	344.073337710334	375.795889818308	-66.2890396570148
582.9476	167.540963353368	391.723278069135	426.048237858818	-66.8434909153629
497.0677	186.369460545435	444.562975795408	482.047523872974	-67.2556194574004
423.5089	208.386316229934	505.654035278997	546.910285317268	-67.6028318812497
361.5036	233.518474556753	573.573000272725	619.287384500256	-67.8473129724321
308.1262	262.923520401232	650.710041669766	701.820729182351	-67.9985165345671
262.7298	296.934436607104	737.628122231357	795.151121705639	-68.0725999774775
224.2111	336.309999576738	834.767921882929	899.967721210071	-68.0565571592138
191.2854	380.667729800795	943.943895004708	1017.81039365314	-68.0370765941794
163.1722	434.250359069324	1067.03343836329	1152.01290484839	-67.8551624942253
139.1537	494.775434500542	1204.70574115557	1302.35120200289	-67.6719305913425
118.6706	564.73656535122	1357.32399027177	1470.12101638334	-67.4094586253931
101.1982	645.333596679256	1531.85393881479	1662.23702908622	-67.1554664348116
86.24196	739.02334446487	1724.25188591661	1875.95310968879	-66.7997742355944
73.61024	846.277024037447	1939.19395616969	2115.81142852068	-66.4232263726344
62.69291	969.093179029383	2179.57869737508	2385.31022881564	-66.0289168180254
53.57697	1107.72320240773	2440.45068856985	2680.08400176067	-65.5866506959639
45.65746	1267.2774223483	2734.38637671546	3013.77851249239	-65.1341859251491
38.96512	1450.16217104474	3055.84266719374	3382.47612393213	-64.6131381062571
33.18414	1658.96869896291	3415.66750565962	3797.23078747628	-64.0944394143252
28.30617	1892.79016515449	3813.68662099114	4257.56506144444	-63.6041021332522
24.17237	2155.82404831228	4239.47182136109	4756.12222839114	-63.0460985365743
20.61345	2454.53346453038	4713.21850912011	5314.0533722585	-62.4905586584154
17.55618	2795.177344898	5235.33281832076	5934.78947461639	-61.9019591154775
14.98558	3164.98613379491	5806.69226187987	6613.23009211759	-61.4070381720435
12.76553	3587.33706328083	6435.54475201514	7367.85066764914	-60.863587703362
10.8809	4065.13466819367	7132.66405822443	8209.76348246627	-60.3197934600033
9.278505	4573.87595084603	7875.83586477935	9107.64139515124	-59.85420795568
7.923394	5143.36105665147	8681.41589352765	10090.6464052346	-59.3551044203415
6.75822	5798.01099693964	9585.88151154241	11202.9485348262	-58.8323950238437
5.761429	6518.38646832703	10576.7952168165	12424.0878622513	-58.3548347016021
4.919708	7306.06514306706	11620.4246254298	13726.3562663234	-57.8413499256059
4.191257	8131.11725840859	12827.1123917097	15187.1616893857	-57.6293555414075
3.564097	9120.03896369855	14130.2070679565	16817.7841133339	-57.1606474171007
3.051758	10101.5604544198	15505.9475666271	18506.1053048254	-56.9172205682614
2.604164	11265.8402974978	17048.8169863592	20434.8065379415	-56.543314040737
2.214424	12507.9444828238	18800.560639493	22581.1814470513	-56.3643220255381
1.892567	13858.7157515118	20602.1883677787	24829.7033373868	-56.0719989584624
1.607507	15395.3164678669	22757.2509370624	27475.593521491	-55.9215860780847
1.376413	16965.3933108923	24960.5147970757	30180.3225484471	-55.7964750139399
1.17375	18776.8100401064	27446.3448162212	33254.6303400467	-55.6228802611711
1.001604	20752.8122344555	30252.6092864351	36686.5041163132	-55.5504927733343
