EC-Lab ASCII FILE
freq/Hz	Re(Z)/Ohm	-Im(Z)/Ohm	|Z|/Ohm	Phase(Z)/deg
6999984	21.5585805012939	5.32794429773594	22.2071921608867	-13.881804806924
5969734	26.4883786365635	-3.70759947593672	26.7465978522115	7.96796935827967
5091109	12.129879282971	-5.10176423000503	13.1591021607862	22.8113692327718
4341796	8.23392112024061	-5.27994074924881	9.78137164869644	32.6697211628384
3702781	5.67647563660196	-5.28396938437757	7.75517299020306	42.9490481032994
3157797	4.5865026089121	-4.95132324716516	6.74919314284868	47.1904885028923
2693047	3.59727494533213	-3.79804610474133	5.23120839252797	46.555106955982
2296687	2.31900193590876	-3.70399632900345	4.37005249213549	57.9500973151217
1958656	1.90867515199479	-3.13949303701305	3.6741607702026	58.70221901279
1670375	1.63604270529649	-2.68014802909087	3.14003649523274	58.5988574265483
1424531	1.2736039007357	-2.32573940522451	2.65162792959028	61.2943373737413
1214875	0.896115465385093	-2.22245491609405	2.39631566813994	68.0402278620526
1036062	0.904253118791496	-1.79846983131117	2.01299961176861	63.3071954038154
883578.1	0.808491433051776	-1.59106454752589	1.78469739499778	63.0628289041921
753531.2	0.821529372508402	-1.3270804812244	1.5607860563001	58.2404150299145
642624.9	0.769751358611871	-1.2004848102547	1.42607185433872	57.3319904457346
548046.8	0.673219986665421	-0.980306590748677	1.18921241261227	55.5208880440599
467390.6	0.613272294603238	-0.897046111414451	1.08664374720131	55.6412435585051
398593.7	0.579219995782328	-0.755446918310827	0.951943196781933	52.5217175471358
339937.5	0.557721008554011	-0.653345904255983	0.859018971845542	49.5146631509507
289906.2	0.570994273692082	-0.596921277431059	0.826044473402658	46.2717220305103
247234.4	0.54396758014625	-0.477896563195222	0.724075861608417	41.3005568534608
210843.7	0.542626325940465	-0.437232689793055	0.696861359688796	38.860868184326
179812.5	0.497459702832588	-0.362788251701125	0.61569592455582	36.1025863332088
153343.8	0.498792920608147	-0.323374808953107	0.594445661700263	32.955936499818
130781.2	0.490034919387615	-0.280301224258899	0.564537862804846	29.7696666348939
111531.3	0.482433153134592	-0.244789876577947	0.540984131854559	26.9035483971551
95109.37	0.471315715518804	-0.208942290755975	0.51555347400765	23.9085261146678
81109.37	0.473986236124072	-0.186590330615763	0.509390717931103	21.487670568259
69171.88	0.459589035000809	-0.166874958300393	0.488947167698855	19.9557590409956
59000	0.45215355121201	-0.14079093423405	0.473566173872383	17.2954701615796
50312.5	0.448292591040808	-0.10748403510592	0.460997901280181	13.482900130798
42906.25	0.461860288123902	-0.105694834994103	0.473799877469723	12.8899461086172
36593.75	0.470991846505894	-0.0985282689096194	0.481187218501654	11.8154955441422
31203.13	0.462665940553045	-0.0817137709105137	0.469826471055271	10.0160069969748
26609.38	0.455268668295845	-0.0653518710810859	0.459935242600163	8.16876241758327
22703.13	0.45088873313794	-0.0757684575747398	0.45721057384316	9.53900244379454
19359.37	0.441837328808358	-0.073748555961306	0.447949857277444	9.47607448915532
16500	0.457568170539029	-0.0504539159287353	0.460341425816728	6.29231990895187
14112.02	0.435398047132197	-0.0281678025612831	0.436308244877016	3.7015560202282
12011.13	0.437975425707311	-0.0219082746567027	0.438523027926623	2.86364535189504
10236.38	0.418534579571191	-0.0235307862765287	0.419195529794421	3.21788682197498
8750.684	0.421626908002036	-0.0195637953614812	0.422080551127748	2.65666033769946
7449.463	0.413083618099921	-0.0331767506350815	0.41441376946866	4.59184591723444
6363.206	0.453866157355709	-0.0322280935456362	0.455008943655422	4.06163707615612
5414.761	0.412282138449795	-0.0188797760539931	0.412714196058949	2.62193336573658
4620.567	0.409766255943755	-0.0210510134260071	0.410306628847774	2.94088350042544
3941.215	0.408238350745744	-0.0261881624847111	0.409077463170401	3.67044899561496
3361.769	0.444595872788618	-0.0345974815735902	0.445939991290205	4.44966529445714
2867.244	0.442676069709416	-0.0342266415924942	0.443997258649281	4.42117496809426
2442.658	0.43175108162592	-0.0414351155926196	0.433734786810241	5.48188256689523
2083.003	0.418397505057114	0.00243077585248225	0.41840456607124	-0.332869170293312
1777.843	0.411135449429277	-0.00188306121739871	0.411139761756221	0.262421316480341
1513.548	0.407508167323155	0.00108553138141084	0.407509613154655	-0.152625700678318
1292.065	0.398671195600433	-0.0181620989666563	0.399084682793456	2.60839666486882
1101.762	0.397830737719117	-0.0128227270176508	0.398037332674093	1.84609637197009
939.101	0.418647543431661	-0.0347639041854148	0.420088436707768	4.74687053490519
801.2801	0.431052645855742	-0.00249941780939837	0.431059892113175	0.332220410181886
684.3433	0.402525455585709	-0.0235065886208405	0.403211237570423	3.34214990858295
582.9476	0.41269846952767	0.00450993791082661	0.412723110923583	-0.626099057671412
497.0677	0.429148071209385	-0.0242111744462403	0.429830487507345	3.22902340263894
423.5089	0.42687446201036	-0.00415791521251549	0.426894711346427	0.558064444795752
361.5036	0.396253055715415	-0.0293692035934727	0.397339948008652	4.23885750585245
308.1262	0.407688730932141	0.00394175042233888	0.407707785951472	-0.553948659770209
262.7298	0.406721406509702	-0.0337200951110143	0.408116830487945	4.73938827905858
224.2111	0.413103749428965	0.000524635021064799	0.413104082567788	-0.0727646659533628
191.2854	0.408737587828188	0.00294919505895528	0.408748227464171	-0.413403373131767
163.1722	0.40647922772944	-0.0334522633645721	0.407853425264193	4.70470256005695
139.1537	0.418035699006058	-0.0254379032565192	0.418808945183328	3.48221345230725
118.6706	0.381695072861467	-0.0114739675279061	0.381867490862409	1.72182469099519
101.1982	0.382402336038319	-0.00274381711585496	0.382412179643809	0.411102202739183
86.24196	0.385710703685843	-0.0237865247081012	0.386443457307168	3.52892383655529
73.61024	0.398869429251591	-0.0232840436622291	0.399548455485382	3.34085559692375
62.69291	0.308530905480146	0.0188025081080393	0.309103306270819	-3.48740960655129
53.57697	0.377360136693836	-0.0259056979954255	0.378248301984584	3.92718221628836
45.65746	0.359882783471356	-0.0254507604277128	0.360781594660037	4.04519891701382
38.96512	0.406579831140777	-0.0228481208895338	0.407221310491783	3.21640515311677
33.18414	0.375644038402398	0.00375000545266521	0.375662755843798	-0.571957296228966
28.30617	0.374497005102866	-0.0460382382103907	0.377316215141269	7.00840829088433
24.17237	0.386739247597867	-0.00268713769934033	0.386748582856588	0.398095545127698
20.61345	0.370698443887191	-0.0177412345163049	0.371122739403755	2.7400245509754
17.55618	0.367546528785853	0.0134445328486023	0.367792341255289	-2.09489584605431
14.98558	0.400328595653783	-0.00825051901733172	0.400413605615725	1.18066261574736
12.76553	0.380813678382422	-0.0330362990281785	0.382243972740748	4.95810288523607
10.8809	0.359137108060782	-0.0208607642366523	0.359742454918514	3.32433550481674
9.278505	0.361298710335267	-0.000527502272685071	0.361299095416214	0.0836527548215724
7.923394	0.378458726640742	0.00795457959733836	0.378542313496262	-1.2040857033701
6.75822	0.390448661561057	-0.00694863462362689	0.390510487487793	1.01955891587027
5.761429	0.394022856152464	-0.0186460469282915	0.394463795850262	2.70934380696174
4.919708	0.380681641307663	-0.0356809079912186	0.382350152639925	5.35463207834344
4.191257	0.365243781906849	-0.0346401128753709	0.366882757351222	5.41778807018512
3.564097	0.356437402054624	-0.0386431943211334	0.358526035387656	6.18756030569015
3.051758	0.338789807084675	-0.0261524466132537	0.339797710187003	4.4141207117206
2.604164	0.342156931700172	-0.0217330606752195	0.342846455190642	3.63442026354155
2.214424	0.341888402626293	-0.0180847968605303	0.342366382298036	3.027940426691
1.892567	0.34797245513019	-0.015783863716689	0.348330245432634	2.59712887686978
1.607507	0.346901620286133	-0.015173741819911	0.347233317234913	2.50456468027742
1.376413	0.345584262210753	-0.00967452765608992	0.345719653437752	1.60355932658665
1.17375	0.345702030994041	-0.0131396804175972	0.345951651874769	2.1766895820138
1.001604	0.339727588180534	-0.0228255037870018	0.340493520928215	3.84379279286943
