EC-Lab ASCII FILE
freq/Hz	Re(Z)/Ohm	-Im(Z)/Ohm	|Z|/Ohm	Phase(Z)/deg
6999984	-11.6483872332382	34.1473017238882	36.0794004960964	-108.83562501628
5969734	-9.36265776812581	40.0891262804794	41.1679171979258	-103.145581152836
5091109	-7.64430664299007	44.7103385212198	45.3591203037948	-99.7022766914385
4341796	-6.06328339672082	49.5907070528493	49.9600003157573	-96.9707576989318
3702781	-13.8301591898733	49.0855183306108	50.9966804115911	-105.735522274166
3157797	-13.0248219240435	57.2535598702528	58.7164040449487	-102.816302307975
2693047	-12.4728588189542	65.8434650467568	67.0144320014805	-100.726553341794
2296687	-12.8171740866845	76.8622833001281	77.9236199472119	-99.4672494038758
1958656	-12.6586821606842	89.4891187971813	90.3800012012683	-98.0513561005485
1670375	-12.425598435625	104.81457327594	105.548520915742	-96.7607686670163
1424531	-12.0475568344881	122.18823864644	122.780736637306	-95.6310677823569
1214875	-11.3533374344394	142.257295398533	142.709622538236	-94.5630171564535
1036062	-10.6324201685678	166.131981079768	166.471869984479	-93.6619264320513
883578.1	-9.53257418789916	194.491270609507	194.724739861036	-92.8059847819054
753531.2	-8.46894996186468	227.226768065849	227.38453605975	-92.134478246012
642624.9	-7.19739637415941	264.811077785316	264.908870052302	-91.5568794927406
548046.8	-6.2624670437497	310.539564834421	310.602704143132	-91.1552933741335
467390.6	-2.7262004977028	362.680281467341	362.6905274947	-90.4306736506315
398593.7	-2.22282619521159	423.498605536769	423.504438994306	-90.3007268226958
339937.5	0.936202920103788	493.432021950747	493.432910092456	-89.8912911822953
289906.2	-114.350238024697	503.725896146547	516.542113854183	-102.789888953619
247234.4	-119.793624550846	608.601689131533	620.279395512042	-101.135416024399
210843.7	-122.62115054926	724.719450874817	735.019883430592	-99.6033841759989
179812.5	-125.307389267985	869.562725264112	878.544976067764	-98.2000959441645
153343.8	-122.588976345596	1031.25216677309	1038.51292172782	-96.77916061224
130781.2	-118.424375052735	1215.54186380878	1221.29699716259	-95.5644900865627
111531.3	-98.8824457556327	1422.04424883734	1425.47801937805	-93.9776834729479
95109.37	-87.4549260487206	1674.19154262532	1676.47418276821	-92.9902480088194
81109.37	-90.2773896830072	1988.58414022526	1990.63228393478	-92.5993189052017
69171.88	-80.2294905989142	2310.91618299752	2312.30845174288	-91.9883740082537
59000	-62.2003547896469	2703.68960798725	2704.40499564585	-91.3178987963916
50312.5	-95.9746574943007	3134.35377484445	3135.82281399361	-91.7538623827066
42906.25	-16.3790545517209	3706.75702699721	3706.79321390082	-90.2531713257
36593.75	15.8927875081692	4337.14492874361	4337.17404695975	-89.7900495398957
31203.13	-611.634522442283	4796.48731406124	4835.3270151039	-97.2669768790144
26609.38	-700.805314343142	5627.90177450329	5671.36724891528	-97.0981262167894
22703.13	-687.898221703751	6684.94546927346	6720.2455230879	-95.8752050988622
19359.37	-666.546266332256	7905.74801310193	7933.79704629672	-94.8193011782156
16500	-598.646407648322	9216.06960703956	9235.49221878231	-93.7165293099273
14112.02	-507.549732540031	10602.6265188116	10614.7678179228	-92.7406675932604
12011.13	-394.465972099845	12663.1319511597	12669.2744155152	-91.7842291458486
10236.38	-441.879203590818	14783.7259700324	14790.3282853213	-91.7120364636621
8750.684	-298.361962632066	17309.0086970652	17311.5799953622	-90.9875313317192
7449.463	-23.5699170288154	20324.61072581	20324.6243925121	-90.0664443802668
6363.206	-87.2655831669174	23454.1373755863	23454.2997191321	-90.2131788715998
5414.761	341.539079852907	27559.1179903351	27561.2342493633	-89.2899719763055
4620.567	-272.366226909686	32359.5545095482	32360.7007250767	-90.4822398521933
3941.215	-27.1603249711759	37324.8870328372	37324.896914758	-90.0416926035172
3361.769	-6838.56064587968	41058.7095495349	41624.3143076309	-99.4561340226503
2867.244	-6716.21668933704	48728.3911023309	49189.0604305454	-97.8476123086
2442.658	-7455.02887942876	58104.947619061	58581.2460895715	-97.311266516578
2083.003	-6921.13254289238	68608.3964871798	68956.6105911417	-95.7604416524974
1777.843	-5841.04065516683	80206.5236490719	80418.9293127212	-94.1652125592942
1513.548	-4843.70990519989	94556.7840323463	94680.7632636403	-92.9324365672907
1292.065	-4064.41780702259	110517.493067885	110592.204816253	-92.1061741309326
1101.762	-3997.63151325621	129517.924555545	129579.604255036	-91.7678998486873
939.101	-3177.01294583116	152340.411934455	152373.5361525	-91.1947128704385
801.2801	-3261.40732172043	177542.387025173	177572.340099224	-91.052390154128
684.3433	1560.16703605872	209096.602603161	209102.423088219	-89.5724974650846
582.9476	2977.29315705208	238776.134273358	238794.69544584	-89.2856174970625
497.0677	1429.68627465036	281746.537327631	281750.1646831	-89.7092624907823
423.5089	-37607.3207779644	292650.033076318	295056.524136761	-97.3227256724807
361.5036	-61757.8338004925	350240.451943343	355643.647789759	-100.000157449127
308.1262	-73061.7435484962	444752.880333259	450714.036762864	-99.3289373921312
262.7298	-64192.1335370746	515271.568627795	519254.676863088	-97.1012774846626
224.2111	-90593.4766861155	573000.645732812	580118.020775339	-98.98430327836
191.2854	-8637.5763345328	723339.93804127	723391.507892153	-90.6841501791974
163.1722	-40948.4101738769	854796.722547327	855776.962282475	-92.7426156497639
139.1537	117952.313745653	1021941.76903273	1028726.26466505	-83.4160659564039
118.6706	-74718.6159619412	1065776.71372923	1068392.65960542	-94.0102847714908
101.1982	-38941.1705802258	805446.804568799	806387.605160351	-92.7679403843087
86.24196	664624.849079232	289450.272576704	724919.064660546	-23.5335710743783
73.61024	212785.934579447	293568.299928525	362574.407091528	-54.0644235992594
62.69291	53975.5209705048	19014.5478556491	57226.8284477846	-19.4063899182904
53.57697	199123.139621677	69465.0557678459	210891.959793691	-19.23156903584
45.65746	190063.458471771	325280.341822266	376737.865129404	-59.7019730695137
38.96512	308923.019011934	314626.181850564	440934.310279107	-45.5240292965984
33.18414	602966.483662373	588011.582536007	842215.056631421	-44.2805848304496
28.30617	783549.532731915	-7622.71531416804	783586.610422334	0.55738102073772
24.17237	890620.900917217	136060.349114982	900953.943191263	-8.68593131220221
20.61345	-16739.7320906292	768790.527631529	768972.752447336	-91.247367691811
17.55618	466140.322833375	1056112.1724044	1154408.81895104	-66.1845894509624
14.98558	4369810.15527741	4281722.71147548	6117874.64493434	-44.4166508476372
12.76553	1795402.42736313	632192.640988645	1903454.07391447	-19.3980591119492
10.8809	5620716.76004629	3149936.26000829	6443178.97770815	-29.2669420062903
9.278505	3946263.70659552	223536.893121894	3952589.78197582	-3.24206621388729
7.923394	2379529.93375965	-1847873.88826149	3012772.91088738	37.8318760913167
6.75822	894407.927779332	1562288.6009054	1800197.54854668	-60.2089261266455
5.761429	755832.256406508	452864.532492188	881117.860796114	-30.928359183987
4.919708	1529494.7659924	-526039.740421178	1617427.60199662	18.9796509524769
4.191257	1378865.52406369	282915.295809467	1407590.56477884	-11.5950099254199
3.564097	2813158.83262976	1761563.75213393	3319182.04840214	-32.0542670880427
3.051758	1613270.86919431	290256.617277105	1639174.12170401	-10.19942797593
2.604164	6041593.310063	12053528.8461006	13482893.137898	-63.3785859450887
2.214424	4553470.23219681	3005804.1393858	5456092.89508997	-33.4293142301551
1.892567	1513587.12191842	-3518832.90798775	3830552.31134817	66.7255762011249
1.607507	448515.044158655	3054824.18043882	3087574.53646553	-81.6474025386145
1.376413	426630.164904364	-3339024.53908526	3366169.65856147	82.7187190239501
1.17375	2430935.49242485	-7548914.34119357	7930671.79367605	72.150168718085
1.001604	7044021.81802978	13158665.6956382	14925438.8968112	-61.8392202369107
