EC-Lab ASCII FILE
freq/Hz	Re(Z)/Ohm	-Im(Z)/Ohm	|Z|/Ohm	Phase(Z)/deg
6999984	2.11156950684053	1.70263543733784	2.71250681376055	-38.8804977183872
5969734	5.62491729087083	1.66083743301767	5.86498725557442	-16.4499907207728
5091109	7.4668950027816	-3.55999421944728	8.27212668091241	25.4904224799783
4341796	2.98672195891146	-5.53692388063337	6.2911075431733	61.6567331791616
3702781	2.46166832825922	-6.5289836233413	6.97763843375489	69.3417014936923
3157797	2.05839303347122	-6.32328835741661	6.64988402389721	71.9685983928081
2693047	2.06110729583491	-6.72209073827062	7.03097910525181	72.9535701384175
2296687	0.135575177331386	-6.93343748882751	6.93476286834576	88.8797914907714
1958656	1.96739145483716	-11.7303604763494	11.8941996805866	80.4790842985633
1670375	-4.63418005257718	-9.32316101355925	10.4113858849077	116.430180590739
1424531	8.5464376247224	-8.72647865584545	12.2144597016895	45.5971902774586
1214875	4.26474835830607	-9.88250883538781	10.7634594550819	66.6576234066224
1036062	-10.623073815887	-15.0807111643282	18.4466134160088	125.161427134959
883578.1	10.8145380750722	1.97903183983478	10.9941257406065	-10.3702324242365
753531.2	2.68852402407055	-9.72155535767537	10.0864661800033	74.5410643013864
642624.9	8.60525995336804	-2.11378197807179	8.86107065290988	13.8008000338484
548046.8	6.00648061898648	-2.86071144465901	6.65293013610268	25.4670973681385
467390.6	4.12223930317309	3.09536718765489	5.15501259930909	-36.9026875166413
398593.7	3.60959588694754	3.63100667615699	5.11990155660881	-45.1694257171919
339937.5	5.040131731367	-0.630623602956884	5.07943047970329	7.1318119407996
289906.2	4.21544214053052	0.241952106625354	4.22238004708967	-3.284979606827
247234.4	2.09269237331601	-2.53404731100669	3.28645053876598	50.4490828302957
210843.7	2.84395471586605	-1.29161803919701	3.12351654150829	24.425775223378
179812.5	6.55668404653971	1.18390526643643	6.66271246310721	-10.2353065930611
153343.8	2.36633194748444	1.98617464923894	3.0894039268061	-40.0083307606345
130781.2	7.98018812328711	2.12354283004324	8.25789541191221	-14.9011998568649
111531.3	6.19112892564276	-4.85760771315363	7.86933479201515	38.1180054846271
95109.37	17.285123756518	-2.92570930225465	17.5309805258987	9.6069265904073
81109.37	26.0354205434307	9.98022017948867	27.8827530510236	-20.973446676707
69171.88	14.9772593247546	-18.0662208415523	23.4671394161429	50.3405875422097
59000	64.1452227051259	-3.84640064646141	64.2604419049799	3.43157200462681
50312.5	57.6006043629885	-45.1789740222793	73.2049815018576	38.1088267007491
42906.25	152.979674765052	-76.8964865975472	171.218721354494	26.6867640857894
36593.75	140.197542040116	-66.9616063702517	155.367974569326	25.5302258580061
31203.13	441.124669528298	-252.167734257338	508.11370800927	29.7543285547183
26609.38	-33.5958414800874	-347.71953662017	349.338742071505	95.5186534629522
22703.13	-219.700652789807	-516.645560647323	561.418749395541	113.037353711093
19359.37	-65.8249333870925	-729.463891136778	732.427805539784	95.156257657532
16500	6.2819518074319	-806.983710463431	807.008160969787	89.5539909283018
14112.02	-230.409779926852	-1117.69319828269	1141.19531727629	101.648213251041
12011.13	455.269369306359	-1143.99851784765	1231.26065780818	68.2992620812312
10236.38	251.083162407758	-1881.76206157371	1898.43915120364	82.3999253067393
8750.684	-539.792413031979	-1706.52646129328	1789.86267972184	107.552715217203
7449.463	-1379.48605025307	-1683.72459650129	2176.67413264049	129.32797622115
6363.206	44.7819738012199	5.29267978036265	45.0936540634112	-6.74039009347803
5414.761	85.175982511029	-2993.35700864349	2994.56860485643	88.370088236223
4620.567	-772.374926063312	-2873.4227488315	2975.419519986	105.04545190571
3941.215	2.79657471797537	1.41869518108894	3.13584536769018	-26.8985636643375
3361.769	4.11904045311917	1.91587848571845	4.54280580990108	-24.9444280786864
2867.244	2.44109020661455	2.19497208246902	3.28280731077044	-41.9611485433569
2442.658	2.87867914885738	-0.454623654492556	2.91435692894512	8.97447858740804
2083.003	2.17237787474367	4.25011165324599	4.77312001690018	-62.9268660194076
1777.843	4.70063375386833	5.17606925550415	6.99197043942418	-47.755923362173
1513.548	22.745649340787	1.08108528533271	22.7713264727421	-2.72118168796694
1292.065	8.12893632304728	-6.65463842557705	10.5054185218545	39.3049849600658
1101.762	10.7580823332077	-1.60981798365426	10.8778605170581	8.51048017617724
939.101	9.78987254603565	-2.89051287893142	10.2076769723033	16.4495208953808
801.2801	13.3211608856607	-10.8598037188982	17.1868747640359	39.1879354120985
684.3433	-7.04615008785973	29.2710144176742	30.1071505808892	-103.534791383069
582.9476	13.7984564399491	-18.0010433744833	22.6811587599753	52.528518556164
497.0677	11.7765848160691	8.49031039270942	14.5180343192396	-35.7896597038201
423.5089	133.75225098586	-95.6789931554139	164.451009042262	35.5778429365382
361.5036	162.716584761852	110.174108202509	196.507050954359	-34.1016171773837
308.1262	24.7460718498994	-15.0864328401433	28.9822105409601	31.3685569284081
262.7298	-15243.9150992988	-39836.3084944723	42653.3518263383	110.940041702016
224.2111	-10771.8236085154	-60797.8554361028	61744.7277869311	100.047082692548
191.2854	-18024.4695016069	-69326.7003876125	71631.5076446681	104.573850344538
163.1722	-28994.9882558742	-62396.587784615	68804.3858421936	114.923759955781
139.1537	-20738.2809151242	-62008.0556633936	65384.0596970632	108.492251409658
118.6706	416.088270171412	8.60330147088169	416.177204289756	-1.18451461100402
101.1982	-22612.1448663138	-143983.278087101	145748.04789143	98.9252313296821
86.24196	-58614.7697700234	-313680.969684775	319110.391522391	100.584287921263
73.61024	-16678.1956152724	-175675.775258106	176465.691344006	95.423255990063
62.69291	-58678.8428238763	-157347.368476875	167932.727488559	110.451767069006
53.57697	-45490.5607444763	-151452.009128073	158136.34049698	106.718316780154
45.65746	-184649.542633343	-177369.619745615	256037.957348919	136.152018152717
38.96512	222331.931372728	-675933.88385414	711560.329873771	71.7926430539234
33.18414	-89545.632110315	-304496.507638863	317390.206834269	106.387433653466
28.30617	-79762.921944908	-581051.926579883	586501.035889438	97.8163288129859
24.17237	133556.405540731	-561584.514562564	577247.330403035	76.6223907879787
20.61345	-272842.018129409	-563031.251610396	625657.22016684	115.854587189751
17.55618	-309019.150802764	-1167326.49148767	1207536.32379807	104.827441464663
14.98558	588610.362778477	-816835.018138952	1006817.56342858	54.2235225198113
12.76553	-666540.403635503	-1267119.2184203	1431735.73796586	117.74563439258
10.8809	-336082.66342905	-964863.518813467	1021720.68912921	109.204323357447
9.278505	-270315.097540167	-1074849.03503279	1108318.86209207	104.116630024024
7.923394	-518246.448341676	-2186691.64818908	2247264.94777066	103.333110239183
6.75822	1818144.85463741	-1342539.00921692	2260102.144531	36.4425852184174
5.761429	-122583.184798871	-1414026.49078639	1419329.96651276	94.9546338094254
4.919708	1997560.72516533	-2774804.91752755	3419033.66187847	54.2501765164408
4.191257	1210606.27731518	-2486282.20667959	2765351.11150943	64.0378884799458
3.564097	1747693.0655361	-3062989.10210659	3526518.57941323	60.2916039364829
3.051758	1523099.45066948	-3837128.63370753	4128363.85124276	68.3500261418798
2.604164	-116982.192473136	-4144018.41630607	4145669.2424794	91.6169827654499
2.214424	831466.442531679	-2965312.63724961	3079677.82108592	74.3366329600838
1.892567	-118363.130947536	-3906123.52954433	3907916.43447344	91.7356423248215
1.607507	-625077.839667358	-3777694.61447248	3829059.79397784	99.3953432005869
1.376413	-245368.570545293	-6624851.57759116	6629393.95122386	92.1211283293855
1.17375	-1588777.36443859	-7357843.33557649	7527421.34230839	102.184788226181
1.001604	-676334.86732788	-9173024.73896614	9197924.31554252	94.2168360566355
