EC-Lab ASCII FILE
freq/Hz	Re(Z)/Ohm	-Im(Z)/Ohm	|Z|/Ohm	Phase(Z)/deg
6999984	25.5154773290426	84.8183949130347	88.5731319247118	-73.2574096571753
5969734	25.1370070667586	79.7197566252217	83.5889270218182	-72.4990427195402
5091109	23.1865836140232	81.1009478671776	84.350349167296	-74.0448828508031
4341796	23.0582880194554	86.4804128692664	89.5016561658327	-75.0705345998668
3702781	27.3977928680631	93.7461571693878	97.6677072428183	-73.7087285123999
3157797	27.4154399160273	101.198187131379	104.845979534109	-74.8419244396096
2693047	28.6031519154804	113.239682562181	116.796258528618	-75.8242032835819
2296687	30.6019434064926	129.001460365544	132.581505937658	-76.6548774949626
1958656	34.6740246536979	146.378341080803	150.42907539187	-76.6734413275248
1670375	39.1036658719835	167.022919887054	171.539361232998	-76.8231551993925
1424531	45.4171469033368	191.551681292515	196.862296641151	-76.6614092138271
1214875	52.789378732976	219.152725966533	225.421018996845	-76.4566340978473
1036062	62.2277631964958	251.107664330334	258.703215283218	-76.0817478124932
883578.1	73.8062165621725	288.032625332764	297.33844497358	-75.6276214640725
753531.2	88.6587240194262	330.337130752472	342.027761005636	-74.9765122256859
642624.9	107.468720985351	378.584873635883	393.54292337193	-74.1523697331697
548046.8	131.872006341736	433.168562435173	452.797117414355	-73.0678752185461
467390.6	161.302938192446	494.473390748509	520.117844365913	-71.9330750095099
398593.7	325.334784356606	668.453376245444	743.419557266482	-64.0479152413605
339937.5	389.721226543809	736.831152603435	833.548308057618	-62.1249542893425
289906.2	461.803167629795	806.918364074658	929.720071803247	-60.2172913104544
247234.4	545.413089460952	883.17025475551	1038.01018156868	-58.3020652886706
210843.7	642.026006191975	961.166479474856	1155.87127046783	-56.2584451545759
179812.5	753.676066767481	1038.32620227588	1283.02334972936	-54.0257260297763
153343.8	882.942284702253	1112.66662736341	1420.42743628934	-51.5666943054779
130781.2	1026.63828220944	1180.2520307474	1564.28290874167	-48.9817321873877
111531.3	1186.60577537909	1235.80476010569	1713.25616043337	-46.1635132213218
95109.37	1362.75942120955	1270.31181662729	1863.00975616294	-42.9891608785365
81109.37	1539.68338895019	1294.40395189165	2011.49360647302	-40.0535944264499
69171.88	1720.57600713774	1292.42061882732	2151.9137650724	-36.91225591182
59000	1893.26531222182	1270.82530747845	2280.23036217618	-33.8708813437065
50312.5	2047.45265810423	1241.37564048581	2394.38423565844	-31.228537502434
42906.25	2272.80577906883	1185.28354316764	2563.30708013549	-27.5423447725244
36593.75	2385.33669401512	1093.4710427534	2624.02554582747	-24.6273704235948
31203.13	2486.51494417322	1009.68852662751	2683.69660885875	-22.1003859047939
26609.38	2595.31216547819	945.745304280098	2762.25983876372	-20.0220044212687
22703.13	2680.35467004005	872.346757438442	2818.73908377821	-18.0279680547646
19359.37	2748.46314983614	807.623994369597	2864.66511171702	-16.3751968101964
16500	2806.31318928399	749.076173772027	2904.56689206192	-14.9452545817325
14112.02	2854.73228387155	701.585935350129	2939.68012498972	-13.8075036400515
12011.13	2893.5415276458	661.609983228563	2968.21669392895	-12.8793120119395
10236.38	2931.68565337212	634.682496300774	2999.60041360487	-12.2154888400789
8750.684	2964.53045945982	613.466503887399	3027.33909505639	-11.6915074772759
7449.463	2987.01214120532	605.398136744366	3047.74481144362	-11.45732816725
6363.206	3018.08362577527	607.826180963855	3078.68176959521	-11.3867512260458
5414.761	3044.82230614847	616.889857959681	3106.68568942415	-11.4532601669046
4620.567	3073.0610125299	644.933747794556	3140.00693084835	-11.8524742402399
3941.215	3097.79582974764	658.824291249798	3167.07885117227	-12.0065024843049
3361.769	3122.21879542803	715.862144971639	3203.2341183759	-12.9135748880884
2867.244	3150.27555738571	772.814811584944	3243.68290997547	-13.7834107647662
2442.658	3182.1713701882	847.013405749031	3292.96922833543	-14.9050959698718
2083.003	3216.36633628252	927.628227407476	3347.46270142843	-16.0880246336989
1777.843	3248.55690355418	1030.35868926427	3408.04357134294	-17.5976882097773
1513.548	4395.33156775893	1126.04558227099	4537.28093067756	-14.3696210736984
1292.065	4444.02591092944	1276.30209278501	4623.66881697421	-16.0238017944427
1101.762	4485.33932418473	1424.34644834273	4706.06328665314	-17.6175583861124
939.101	4530.28081435174	1616.03529888863	4809.8871446363	-19.6322613402868
801.2801	4589.06767244489	1822.54254871811	4937.73262177759	-21.6604402618027
684.3433	4659.31681082287	2041.34923053834	5086.87918321598	-23.6592837442079
582.9476	4733.7427043174	2330.36062861121	5276.25820540081	-26.2104298932295
497.0677	4824.04491396392	2648.57938045906	5503.30646671018	-28.7684171583249
423.5089	4902.62575362039	3029.55873858256	5763.15585687077	-31.7138327549098
361.5036	5025.47162952245	3497.03488129021	6122.46829800657	-34.8325910028336
308.1262	5163.22764846674	3941.47809657917	6495.703913796	-37.3572034763627
262.7298	5292.83637557073	4529.14688598072	6966.15305698586	-40.5540214942951
224.2111	5468.40693034423	5170.9295284012	7526.08706723011	-43.3984189020205
191.2854	5746.16686714945	5806.91278732979	8169.37389184633	-45.3012575762736
163.1722	5963.7514184741	6615.64003258614	8906.90878038549	-47.9665254589293
139.1537	6111.9953316271	7575.52908323408	9733.7108969168	-51.1031428013273
118.6706	6414.45684574909	8552.31303574213	10690.5245375193	-53.1291502127997
101.1982	6877.8831912622	9886.11287358559	12043.2763375222	-55.1732172539745
86.24196	7187.57976240195	11489.1576967957	13552.1971437376	-57.9700362463923
73.61024	8075.21070149367	12671.8133496178	15026.1066627743	-57.4923613325917
62.69291	7992.02727203575	14087.1740254568	16196.3258778177	-60.4326088498646
53.57697	8843.62657710781	17211.5289981725	19350.6191500494	-62.8049978963832
45.65746	20155.5206887797	18792.095031379	27556.9927587211	-42.9950852621382
38.96512	22433.5000762866	21836.0828288648	31306.1725380442	-44.2268413892663
33.18414	21860.5188514397	24154.179402805	32577.7019919613	-47.8536183958208
28.30617	24420.3226654906	27824.0924514221	37020.7006934222	-48.7276024869354
24.17237	26098.2023168505	30381.7399800382	40052.0447466283	-49.3371092598176
20.61345	27929.7047424088	36270.2572173582	45777.7234647099	-52.4021355257141
17.55618	31017.5810966913	41030.2638188386	51435.1327998025	-52.9118731577301
14.98558	31354.2677699117	44804.1256818047	54685.462286592	-55.0153788405719
12.76553	31961.4382213821	52417.8093086626	61393.4871619012	-58.6275053163049
10.8809	39213.0347273517	60815.5640758093	72361.5569649199	-57.1866367826879
9.278505	37224.1247941541	64982.1867184849	74888.7178245614	-60.1943729986492
7.923394	42983.8895086717	72896.9807689026	84626.14585644	-59.4741650501697
6.75822	42525.2440496189	81175.4657040162	91639.7981978548	-62.3513872099782
5.761429	68991.7334013443	87599.2963334894	111505.587285322	-51.7766260416138
4.919708	159001.467806772	140731.602938008	212336.645047926	-41.5119209840845
4.191257	184314.820376598	88584.3329237195	204497.278832746	-25.6696035712496
3.564097	148719.15700584	201802.211432541	250682.109851484	-53.6114546255849
3.051758	171611.622782589	163113.319182013	236762.547647737	-43.5456346779014
2.604164	205585.046031135	169418.496406921	266397.894279226	-39.4912478096849
2.214424	171923.449052467	213365.203124475	274011.646173013	-51.1391474691733
1.892567	196450.315143458	222994.465130932	297185.561222268	-48.6210781736647
1.607507	253246.949826466	239818.848441014	348779.439852727	-43.4399984492131
1.376413	204132.370702263	245562.376637918	319328.836136965	-50.2637539018827
1.17375	180771.433003943	234700.158336097	296247.32119175	-52.3957126688306
1.001604	110743.75110513	486838.326261533	499275.209003978	-77.18469156812
