EC-Lab ASCII FILE
freq/Hz	Re(Z)/Ohm	-Im(Z)/Ohm	|Z|/Ohm	Phase(Z)/deg
6999984	29.9305984366583	91.3361927351374	96.1152476255805	-71.8561840734034
5969734	18.9622715105557	93.7400746511757	95.6387439087738	-78.5642020514565
5091109	15.641904679058	99.33267707636	100.556700011213	-81.0511253612219
4341796	14.494580503447	109.143555130908	110.101809660806	-82.4352195069194
3702781	16.623680222586	121.059918781442	122.195951976782	-82.1811700205584
3157797	15.7406015671875	135.254688587069	136.167534025119	-83.361921444764
2693047	16.1820500985155	153.807202203422	154.656115931557	-83.9940084843523
2296687	16.4776299368898	177.086505196529	177.851462212311	-84.6840215570284
1958656	17.8819367418181	203.933764385416	204.716252207891	-84.988835104038
1670375	18.9842913105704	236.238663255582	237.000230660961	-85.4055473084366
1424531	21.360512001591	273.419155860698	274.252267565004	-85.5329158262942
1214875	24.0590242933276	317.077419750525	317.988878367778	-85.6608573019469
1036062	26.0441826350095	368.502901627932	369.422099985005	-85.9573056651476
883578.1	29.3087925986814	428.600033155759	429.60097037217	-86.0880546339965
753531.2	33.166325748102	498.982204760582	500.083238902645	-86.1972603897484
642624.9	80.6659563203868	660.173432882686	665.083421830069	-83.033616628154
548046.8	101.773798153664	758.924632279683	765.718292501541	-82.3620527964812
467390.6	120.294226965482	871.971111060734	880.229697048284	-82.1452455668037
398593.7	141.718004013909	1000.36862780714	1010.35705775851	-81.9368035209351
339937.5	164.67822785569	1149.37912386561	1161.11639774303	-81.8463907808634
289906.2	185.706053715895	1322.24040821876	1335.21774835165	-82.0052146816737
247234.4	210.323258540767	1523.31131937375	1537.76241624491	-82.1388857352777
210843.7	235.756685144673	1756.404969996	1772.15677444662	-82.3550627113806
179812.5	263.533845067659	2032.56794232005	2049.58106149606	-82.6124926487329
153343.8	292.062452326837	2353.6450068078	2371.6967120883	-82.9263589289055
130781.2	326.050514391894	2725.7647514522	2745.19624402236	-83.1788041334402
111531.3	367.658006020575	3162.37956356837	3183.67977558452	-83.3685677551875
95109.37	412.792108617369	3676.76372494665	3699.86335072261	-83.59419853491
81109.37	471.267825940678	4272.34964861555	4298.26300775003	-83.7053523471654
69171.88	536.999214348856	4964.0626398488	4993.02373803229	-83.8259026672609
59000	1231.71899481931	6215.82506947864	6336.68785538296	-78.7915517045644
50312.5	1258.54648042132	7166.50912157487	7276.17978289409	-80.0395683739184
42906.25	1716.29731384096	8297.59720665373	8473.23998676808	-78.3135903118663
36593.75	1886.76359314386	9448.96194113298	9635.49472634346	-78.7077279791368
31203.13	2143.82732340042	10869.8167338941	11079.2107760888	-78.8428887230082
26609.38	2343.36147318735	12513.9293881942	12731.4481394195	-79.3936157556879
22703.13	2620.96463848346	14443.6307312398	14679.5069514135	-79.7149304871973
19359.37	2998.60329340428	16707.9300211261	16974.879890652	-79.825339454319
16500	3426.18591055311	19331.8904974669	19633.154104721	-79.9498431832009
14112.02	3955.75146358577	22336.4162455451	22683.9912787832	-79.9571197471991
12011.13	4671.53446960892	25899.4309350489	26317.3660737565	-79.7753775345836
10236.38	5492.11313494428	30023.7441486968	30521.9350532274	-79.6337423676272
8750.684	6647.65742243637	34771.9573284532	35401.700039092	-79.1768658217899
7449.463	8104.51452579224	40307.1114171439	41113.8223289057	-78.6311808177073
6363.206	16437.882184702	50247.5650238722	52867.9653622721	-71.8851184420575
5414.761	18262.0072252322	57474.9269918433	60306.451898716	-72.3729347088319
4620.567	21803.2990811821	64839.2899118838	68406.9979395441	-71.4139179513419
3941.215	27005.3350266967	73115.7805047686	77943.6044760931	-69.728276118067
3361.769	33430.2693081314	84144.4519032942	90542.0990043857	-68.3322644502308
2867.244	40091.7200468305	93878.9092985585	102081.318699361	-66.8747171151975
2442.658	47292.5091481823	105430.279462489	115551.3965691	-65.8405855907659
2083.003	59135.4828818933	118994.847982132	132878.813894335	-63.5745375110235
1777.843	72164.6300297647	131080.769505742	149632.556489389	-61.1656510529549
1513.548	86735.4509879898	144455.326086902	168494.450036087	-59.0180906452456
1292.065	103421.447727178	157425.72285572	188358.312974584	-56.6969297551895
1101.762	127154.06369709	169191.364271238	211645.63226924	-53.0736764390751
939.101	149748.785831835	178435.376896877	232946.093735095	-49.9955294396702
801.2801	175672.892790188	186885.14130314	256489.807402102	-46.7713297687084
684.3433	203301.510674227	189327.612688644	277806.49590822	-42.9616703635261
582.9476	230703.107286709	189249.615922591	298394.605914032	-39.3626015959441
497.0677	298158.121266106	168637.746626808	342544.821686595	-29.492429546564
423.5089	319741.847986591	160167.231099816	357614.864445065	-26.6075125635669
361.5036	334778.103514284	150027.510590256	366857.782426011	-24.1390671426946
308.1262	346559.389589798	140178.289666224	373836.011382801	-22.0226240728388
262.7298	359121.443955797	130786.325709931	382195.335530931	-20.0108202851077
224.2111	368749.685545611	121415.222205773	388224.145015819	-18.2247446799243
191.2854	379451.16567245	111823.085458833	395585.123041444	-16.4200823238669
163.1722	386704.182273804	110226.682014769	402107.008165782	-15.909743086166
139.1537	392312.614933868	102098.807458251	405380.505600166	-14.5875570302323
118.6706	396300.732510151	100137.555289809	408756.407371801	-14.1807111590658
101.1982	406106.241792531	99942.2206385412	418223.298118382	-13.8256721317351
86.24196	411736.802887321	101851.57701988	424147.307657739	-13.8943640417933
73.61024	417427.179618363	98182.8439334619	428818.517705339	-13.2359266732069
62.69291	417625.122769595	105968.041404609	430859.569891917	-14.2377261892593
53.57697	422000.959348716	107944.296550819	435587.856636394	-14.3481294268031
45.65746	432274.385334627	114344.908952995	447141.926484085	-14.8164880468548
38.96512	435163.588179005	126837.484377437	453271.547662131	-16.2498622925115
33.18414	443740.635116329	134827.610468986	463771.749676735	-16.9010517449895
28.30617	447222.388254926	149080.015684911	471415.65060258	-18.4356275260002
24.17237	456066.9433004	162244.52973748	484066.466718266	-19.5828723783466
20.61345	467530.271515304	176117.186410666	499601.659457195	-20.6412342879343
17.55618	476560.412459243	194535.299447969	514736.640870489	-22.2056267926036
14.98558	483936.231013698	217431.587111959	530538.189729796	-24.1942888149893
12.76553	496135.893660857	242733.45045163	552331.741752012	-26.0700953404681
10.8809	508900.979150768	271677.6449711	576878.626192419	-28.0956042786587
9.278505	524804.099595399	304703.123968647	606847.045562875	-30.1396025648981
7.923394	542331.274478566	340602.862499879	640416.677812701	-32.130247021255
6.75822	559250.238087343	381890.972651394	677201.257967953	-34.3277005937643
5.761429	575682.013055805	427729.023509005	717190.279987084	-36.6121749961981
4.919708	602874.626116417	482730.889029932	772325.660611273	-38.6847867947264
4.191257	633091.738958475	541132.284180329	832844.102410341	-40.5220160718591
3.564097	660593.057027683	609771.873525806	899002.182831806	-42.7090933786986
3.051758	699597.439533429	683478.121178548	978048.526163957	-44.3322656235704
2.604164	731838.227885741	767768.997085661	1060686.77029595	-46.3725511432974
2.214424	778619.760802763	863363.307364417	1162602.6545711	-47.95444177903
1.892567	819904.484305292	968214.371561751	1268732.60881978	-49.7413653617501
1.607507	884363.245911655	1089657.12782048	1403371.30045095	-50.9372944379487
1.376413	941924.594445849	1224817.73115948	1545121.48913431	-52.4385469935946
1.17375	1017255.95600496	1372001.04607233	1707980.25470177	-53.4452968649969
1.001604	1103390.04949965	1535484.75023226	1890815.43772275	-54.2992045149702
