EC-Lab ASCII FILE
freq/Hz	Re(Z)/Ohm	-Im(Z)/Ohm	|Z|/Ohm	Phase(Z)/deg
6999984	-19.1490036724774	7.08501672572779	20.4176836015351	-159.695827982894
5969734	-23.2325016476296	12.463374621003	26.3644616814108	-151.788093677617
5091109	-26.1990831216247	18.056363521177	31.8186143636503	-145.425454658468
4341796	-28.2856755853957	24.8269631665323	37.6358544926856	-138.725859160004
3702781	-30.1554602634951	32.7060493193304	44.486373709055	-132.676513463233
3157797	-31.7341136778738	42.0661112031528	52.6935639587628	-127.030415462675
2693047	-40.6943273933303	46.3227175013644	61.6589201876482	-131.299180219518
2296687	-42.7631882380875	58.7690612222941	72.6807596633102	-126.0414330125
1958656	-44.3379943659258	73.3109648984423	85.6758736093978	-121.165275697039
1670375	-45.6635183701535	90.2529357121619	101.147166616792	-116.837152512621
1424531	-46.3835367138164	109.433699563693	118.857759857228	-112.969687395488
1214875	-47.1858366708912	131.045002460896	139.281355006003	-109.802605887123
1036062	-46.59983932014	156.684531979088	163.467389977844	-106.563102513453
883578.1	-46.287893663947	185.886903766712	191.563331803923	-103.98290167464
753531.2	-45.6610787733081	219.653564935296	224.349331854424	-101.743266949253
642624.9	-44.654727426976	258.666093270003	262.492271294115	-99.7946947837931
548046.8	-43.5573177500383	304.135159097988	307.238400804873	-98.1503059117676
467390.6	-41.6167836231474	357.037746295454	359.455016599954	-96.6484689391707
398593.7	-39.5076497059506	418.403259527958	420.264371519771	-95.3941497340703
339937.5	-37.3446725533887	489.766624305339	491.188325239481	-94.3603619843158
289906.2	-168.479497826598	474.393797805839	503.423098977937	-109.55233792221
247234.4	-178.447890269452	579.261602675958	606.125114045226	-107.122022842603
210843.7	-185.879807813771	701.35692152876	725.57069561083	-104.843770761824
179812.5	-190.415088210794	843.106825549818	864.341960746449	-102.726691708816
153343.8	-191.737986948737	1006.06520726981	1024.17315768282	-100.790151657053
130781.2	-189.729689321248	1195.39123150168	1210.35430819287	-99.0186234502884
111531.3	-184.582120147373	1413.72814619541	1425.72712340869	-97.4386923302151
95109.37	-177.852598117436	1667.13399725418	1676.59396141637	-96.089376722682
81109.37	-166.819596724332	1960.43467646937	1967.51947857063	-94.8637627031177
69171.88	-154.710685377698	2300.71003620652	2305.90591023819	-93.8470490956581
59000	-140.609667832296	2698.69984440295	2702.36043651997	-92.9825703743647
50312.5	-123.138747668909	3156.72055858297	3159.12137091278	-92.2338864234672
42906.25	-95.2658581594436	3702.47046998588	3703.69587909811	-91.4739152040057
36593.75	-68.476526107378	4321.64911638241	4322.19158758107	-90.9077756066369
31203.13	-1027.76449082707	4652.77619394405	4764.93716218142	-102.456198333735
26609.38	-1030.96338881832	5555.69400465216	5650.54168929065	-100.512725492651
22703.13	-1020.72093371985	6592.5535026665	6671.10432462679	-98.8011859670362
19359.37	-980.480753870271	7799.31377004475	7860.70211827924	-97.1652768703787
16500	-934.778345563308	9196.35708799288	9243.74351900847	-95.8039864449274
14112.02	-875.335900026064	10773.9307801688	10809.4309468048	-94.6448355295982
12011.13	-792.555229311769	12669.5152378258	12694.2806079356	-93.5795351011115
10236.38	-694.869011321758	14837.843202293	14854.104949095	-92.6812518699054
8750.684	-586.436668098589	17311.9771369243	17321.906949152	-91.9401309619036
7449.463	-424.853802916916	20281.609174744	20286.0585494303	-91.2000413779332
6363.206	-235.394094254655	23664.8300735522	23666.0007772693	-90.5699023948483
5414.761	-99.1632609451467	27693.9087893973	27694.0863252027	-90.205157462468
4620.567	-10.6635694794146	32345.8774568854	32345.879214632	-90.018888883271
3941.215	204.387466573523	37665.5273871982	37666.0819251521	-89.6890943763937
3361.769	-9287.6354488846	40007.904361327	41071.7979106888	-103.069435061863
2867.244	-9354.22680185314	47909.0828833797	48813.7458282711	-101.047982664862
2442.658	-9231.19783120323	57067.3136642034	57809.1108930711	-99.1885627323242
2083.003	-8973.32366231716	67600.6701737663	68193.6298014047	-97.5612480025936
1777.843	-8573.59895577077	79695.9709352368	80155.8131539098	-96.1401980791102
1513.548	-8047.60942544978	93926.9928731613	94271.119690282	-94.8971088467943
1292.065	-7373.57998415294	110202.694118978	110449.099013363	-93.8279123053007
1101.762	-6479.6998986299	129018.997311696	129181.609287436	-92.8751407877776
939.101	-5320.71940449581	151695.292001159	151788.575559224	-92.0088286015398
801.2801	-4311.6028853745	176672.334343662	176724.937804148	-91.3979982961509
684.3433	-3056.09058814097	206008.747174165	206031.414114334	-90.8499068693287
582.9476	-1293.64170480395	241183.466949622	241186.936293614	-90.3073158373398
497.0677	388.496606007724	281860.848549236	281861.11628692	-89.9210276918626
423.5089	-83149.1129257446	284080.963847795	295999.60979878	-106.314496126146
361.5036	-85602.0044548277	343647.707116136	354148.909038079	-103.98759992856
308.1262	-86387.0255662956	412580.029998203	421526.985304037	-101.825887463311
262.7298	-87203.5628470237	492991.186086331	500644.355737706	-100.031097170064
224.2111	-85674.065010764	584987.599082531	591227.99028447	-98.3319908286036
191.2854	-81725.7887425262	693003.371468369	697805.687431762	-96.7258182415134
163.1722	-75937.4405984022	810218.264189966	813769.089184172	-95.3543864630882
139.1537	-70373.4556371237	960199.158466163	962774.55677715	-94.1917405052088
118.6706	-69688.8373970599	1117159.21709147	1119330.7153787	-93.5695083396967
101.1982	-59663.2917964417	1286682.46540051	1288065.0120072	-92.6548958113294
86.24196	-70169.000416351	1554050.8234392	1555634.16343673	-92.585281439221
73.61024	-3099.98533343231	1766700.57018206	1766703.28991336	-90.1005353690771
62.69291	-557398.299776037	1436675.63208665	1541015.81316507	-111.205149273823
53.57697	12599.4937735276	2501701.68844622	2501733.41609733	-89.7114397304038
45.65746	136336.727825547	2753123.39179331	2756497.07306097	-87.1649861057243
38.96512	-12857.1335265452	3462090.95700702	3462114.8306306	-90.2127778011432
33.18414	118825.726189901	3770239.76685776	3772111.80279697	-88.1948204466925
28.30617	-30425.2063913141	4933749.48046181	4933843.2919116	-90.3533243482888
24.17237	220450.453875073	5632314.48531144	5636627.08222416	-87.7585703814799
20.61345	229824.060653989	5647230.68329755	5651905.29726329	-87.6695327401166
17.55618	159858.09891758	6335108.30495276	6337124.88809168	-88.5545233504756
14.98558	-163313.313915829	8967993.57755375	8969480.47801809	-91.0432801251854
12.76553	-37639.4536761948	9810392.2275492	9810464.43277946	-90.2198251820234
10.8809	149586.813121513	13911505.0376533	13912309.2485509	-89.383937054707
9.278505	1104949.73649415	14581622.9230422	14623427.8125879	-85.6665868798982
7.923394	209523.927695092	14613894.8974098	14615396.8248836	-89.1785889809321
6.75822	-1857807.30146407	16011409.9873094	16118830.5329849	-96.6184459507058
5.761429	-4908824.34933386	20761904.2151715	21334320.3110052	-103.302399701363
4.919708	2610661.05635995	20108697.161289	20277456.7605414	-82.6028096619952
4.191257	4352848.46139575	25920816.8496064	26283759.9265919	-80.4673386637631
3.564097	4629701.2147783	28378709.392641	28753874.1760148	-80.7343942920736
3.051758	-3084241.86335106	31464527.235917	31615328.9094295	-95.5984091880345
2.604164	1173305.90803912	48048540.8687778	48062864.3171883	-88.6011621149993
2.214424	9757155.09064608	53538155.5606919	54419997.944724	-79.6713856947673
1.892567	8712098.25985464	75965321.49153	76463263.8945061	-83.4576053965508
1.607507	1623674.11571012	66889178.0739944	66908881.7799891	-88.6094700030287
1.376413	52683563.9645944	81845265.0842777	97335529.6319242	-57.2307316146011
1.17375	8257952.5911595	99007983.727779	99351772.11725	-85.23217027963
1.001604	15020188.6137952	103532898.863802	104616763.537859	-81.7453210258024
