EC-Lab ASCII FILE
freq/Hz	Re(Z)/Ohm	-Im(Z)/Ohm	|Z|/Ohm	Phase(Z)/deg
6999984	-0.519713660184954	0.512435330816173	0.729857696302178	-135.404021751174
5969734	-0.970095294550509	0.702714629627825	1.19787008110313	-144.081295671092
5091109	-0.917790095939911	0.771574475446489	1.199027035294	-139.946660334089
4341796	0.128695217424547	1.37571631235833	1.381722776492	-84.6556601461694
3702781	81.0957683700399	-2.22348437502272	81.1262443990423	1.57054263364223
3157797	64.8339604408667	11.7420253788948	65.8886757071842	-10.2655186575984
2693047	-20.3046096953718	1.29311012048357	20.3457442396458	-176.356008270811
2296687	-18.0081376102461	0.162197443085063	18.0088680432753	-179.483956761768
1958656	-15.2172738714835	-0.197069441096498	15.2185498798127	179.258039503148
1670375	-3.83342018656267	11.9059473851792	12.5078652641209	-107.84727281968
1424531	-9.44743746088077	0.755915441918981	9.47763064972385	-175.42535292418
1214875	5.54498133549785	1.98342499536572	5.88904005108312	-19.6819940769042
1036062	4.28757308174566	2.51434764841055	4.97043529566351	-30.3885011606809
883578.1	3.18558149841365	3.42592934087139	4.67813224820321	-47.0819531077607
753531.2	2.25243529151345	4.62756053741775	5.14662814568153	-64.0457952975186
642624.9	1.53815654015366	6.05564519066803	6.24794079815729	-75.748057192609
548046.8	1.08296014775978	7.34554957661625	7.42495126342005	-81.6132542540247
467390.6	0.878532950341691	8.24692263556201	8.29358505724642	-83.9192947878673
398593.7	0.917028112492203	8.98123047190555	9.027925639292	-84.1700211190165
339937.5	1.06033198499546	9.39031611681525	9.44999157100813	-83.5575865318012
289906.2	1.4025513669286	9.7351473341876	9.83566184632296	-81.8017573686228
247234.4	1.80082652080529	9.87341750155647	10.036301575684	-79.6633642856355
210843.7	3.50574122699341	31.7024084622616	31.8956568181111	-83.6897105993583
179812.5	4.36101760814872	30.2583654961416	30.571018253841	-81.7986633965291
153343.8	5.28668751272654	31.5749201164792	32.0144443215756	-80.4949552294884
130781.2	6.01764179626244	36.0778956730686	36.5763115825659	-80.5304786127865
111531.3	14.6589006688539	68.321497198896	69.8763933551101	-77.8903463886032
95109.37	14.9896156991163	69.7503118713876	71.3427963074271	-77.8713814855844
81109.37	15.5817332224561	72.2740342380667	73.9346091844748	-77.8336808626647
69171.88	15.9252760294391	84.305664225872	85.7966167000734	-79.3029165367187
59000	12.0415001699407	134.115691283424	134.655175818731	-84.8694879953122
50312.5	24.2132025858579	95.2690673377348	98.2978858921475	-75.7398638961386
42906.25	24.3362330960716	60.7171251211519	65.4127015516402	-68.1584290551881
36593.75	24.5834676258509	44.6595429882069	50.9786392563274	-61.1688023208281
31203.13	24.8248630841758	34.3261480328305	42.362226876309	-54.1253347424598
26609.38	24.7502889497714	26.7052281753558	36.4107953084658	-47.1757806762913
22703.13	24.5334255912917	20.8329177314213	32.1853916000352	-40.3367387096476
19359.37	23.9164425735597	15.8144340683506	28.6721563590287	-33.4741481776241
16500	21.9496046646736	13.3260513883384	25.6781773212215	-31.2627889194269
14112.02	18.0730771795095	1.27143287016274	18.1177443485617	-4.0241026109971
12011.13	17.7830924504056	0.215879385169947	17.7844027453444	-0.695512894551511
10236.38	16.535679825501	-0.211877472460896	16.5370372000192	0.734110769378294
8750.684	22.4773569913063	14.0950870044414	26.5311713834387	-32.0909764939767
7449.463	21.8134041381211	17.7587143124392	28.1282159783345	-39.1497019384294
6363.206	21.315394824588	22.1836837202214	30.7646205880536	-46.1435341830056
5414.761	20.8887661628739	27.4005185167524	34.4547379440639	-52.6799398422612
4620.567	20.6611793851505	33.1428504804421	39.0555101305092	-58.060678169582
3941.215	20.8443019838424	40.0421394115006	45.1426389773977	-62.5003562367122
3361.769	20.9821310468409	47.5008026545423	51.9285670521783	-66.1679163791241
2867.244	21.915217788983	55.549392745793	59.7160933514988	-68.4698889126212
2442.658	23.0437071027659	64.6893151973977	68.6710997272239	-70.3930217519778
2083.003	24.2821728248268	74.5754707767572	78.429106578296	-71.9644730966831
1777.843	26.0237284782735	85.7751443442697	89.6359851353864	-73.122478096422
1513.548	28.9043546674625	98.4745287348202	102.628916628246	-73.6419216334876
1292.065	30.6380723815698	113.247284030671	117.318535703366	-74.8615195962031
1101.762	32.7385900518806	130.912818099458	134.944363429256	-75.9594786190123
939.101	34.472641052572	149.91609042266	153.828466639809	-77.0501610778233
801.2801	37.5122061631779	175.381375932038	179.348244025537	-77.926958391712
684.3433	41.3646253055703	199.871250222344	204.10670957152	-78.3073450718994
582.9476	45.1786201110911	232.580170273787	236.927506465007	-79.0072130186517
497.0677	48.9017466675629	267.529255056819	271.961914867496	-79.6412481147434
423.5089	55.4788493850448	313.254102409568	318.128960337647	-79.956775972522
361.5036	61.3388847361074	363.57098692143	368.708992718773	-80.4236792797741
308.1262	70.2826744747041	423.09792501512	428.895684850544	-80.5684657146037
262.7298	81.1013016667237	493.015506769757	499.641582584434	-80.6584773842187
224.2111	95.2412200816006	572.479352509654	580.347739766861	-80.554428248623
191.2854	110.157277943824	668.453359523743	677.469202062036	-80.642090791278
163.1722	135.587499075579	777.980354655774	789.707162267061	-80.1137091126083
139.1537	163.371207403933	907.745955998462	922.330131807576	-79.7974364096961
118.6706	199.255701474692	1061.82138245595	1080.35525768648	-79.3717860636934
101.1982	249.261801649562	1223.93630267317	1249.06025425631	-78.4888008056173
86.24196	315.061457401021	1415.02742908572	1449.67801494145	-77.4476219003056
73.61024	393.826120609546	1644.26508532212	1690.77103242388	-76.5305456534192
62.69291	497.485151954449	1893.73175943777	1957.98658144493	-75.2809247022389
53.57697	766.086836357738	2139.00803887358	2272.05731248277	-70.2949886732309
45.65746	968.124941056047	2449.6678847118	2634.03467078228	-68.4357406280314
38.96512	1217.60012454992	2790.67556441109	3044.73646956598	-66.427867330775
33.18414	1537.95380651495	3153.75507520142	3508.770865322	-64.0034537164584
28.30617	1909.58538149601	3538.30803301002	4020.71387513293	-61.6447583612433
24.17237	2386.85741604665	3916.05744404351	4586.13063808538	-58.6374747819402
20.61345	2910.86293710261	4300.86102498648	5193.31576113424	-55.9094909390294
17.55618	3622.19957814415	4655.14847525602	5898.36732584417	-52.1132960420327
14.98558	4321.49143096528	4948.70650734159	6570.00641428236	-48.8706929666914
12.76553	5140.22984458213	5188.10238533587	7303.31220857089	-45.2655680352149
10.8809	6008.17927983355	5316.91053366221	8022.95181847613	-41.5070737611377
9.278505	6861.78045480882	5346.63854336555	8698.88353315518	-37.9254057217939
7.923394	7795.89603307198	5290.34054212377	9421.44882754802	-34.1610443598946
6.75822	8681.06433151387	5066.22039274762	10051.2420623411	-30.2675956067524
5.761429	59812.6953095428	2398.8229553546	59860.779077484	-2.29664975558034
4.919708	63017.5272386952	-153.692428542057	63017.7146574063	0.139737473443087
4.191257	66028.0608826338	-2767.64624066758	66086.04005109	2.4002170336704
3.564097	68766.6336252479	-5319.61039566067	68972.0824313047	4.42344502687856
3.051758	76620.3393445265	-12912.7863318412	77700.8137159591	9.56613772497193
2.604164	77682.8918775818	-14902.7797293597	79099.4597587486	10.8597503756624
2.214424	79067.8154340669	-16846.0947789385	80842.503343332	12.0275300353862
1.892567	80143.7146035322	-18512.9584807284	82254.146534759	13.0070071157403
1.607507	81162.3432373115	-20250.020194597	83650.3991481974	14.0092879163406
1.376413	82236.5078039136	-21697.7433110579	85050.7805994495	14.7804088944954
1.17375	83019.5664969522	-23115.3391862272	86177.5337720696	15.5589267577853
1.001604	83836.4014905147	-24423.6578274906	87321.5739468382	16.2421731989009
