EC-Lab ASCII FILE
freq/Hz	Re(Z)/Ohm	-Im(Z)/Ohm	|Z|/Ohm	Phase(Z)/deg
6999984	0.640768615014438	2.44970981370766	2.53212610060461	-75.3416009327432
5969734	4.93277573668723	4.96980797382153	7.00223305561235	-45.2142653942389
5091109	3.44345900732282	1.0909041205968	3.6121298060075	-17.5784482870168
4341796	5.40845930014244	-4.25092766037797	6.8790855478809	38.1665521986085
3702781	4.2818916672861	-12.909901150621	13.6014758011467	71.6506068165105
3157797	3.35212569960479	-9.50848244271838	10.0820625404445	70.5803789509856
2693047	6.00233335392868	-8.97934924149621	10.8007739765465	56.2388671867163
2296687	-0.0611949581691043	-13.7525951838426	13.7527313328501	90.2549474948649
1958656	-3.3404271249099	-9.94576480827842	10.4917439445701	108.565360824317
1670375	7.56347845654504	-0.511723705714585	7.58076958584096	3.87057284021385
1424531	14.9520374239949	-7.55752425900796	16.7534950399622	26.814367516343
1214875	33.0389743967367	-25.1650165637783	41.5313362154826	37.2956792683215
1036062	13.2373126852372	-38.2362981467182	40.4628340961365	70.904271992573
883578.1	9.13792222634263	-34.3360284276988	35.5311760402386	75.0971771373404
753531.2	6.65000392795388	-32.3593053414587	33.0355444093715	78.3871007969816
642624.9	5.15164159492202	-32.9220289723017	33.3226559982184	81.1064730842315
548046.8	0.513987597075095	-39.6992049450726	39.7025321172444	89.2582301144553
467390.6	-0.385552288075129	-47.4067724256937	47.4083402197161	90.4659678508116
398593.7	3.40953076030348	-7.18047925447421	7.94884786175896	64.6000746685281
339937.5	5.79218091448659	6.31331400498358	8.56780563923252	-47.4650212304292
289906.2	1.44165806274385	-3.9267941415775	4.18307186170663	69.8401174796766
247234.4	-1.80819227685448	5.38794763690299	5.68326834207965	-108.551724428793
210843.7	3.50559053611651	2.86109461309645	4.52493396548493	-39.2196715443708
179812.5	13.4104807917622	-6.57960831218234	14.9376116098914	26.1340374304047
153343.8	4.05680288208349	15.566121338948	16.0860741998454	-75.3926514722894
130781.2	-9.03882259094171	-166.187791641885	166.433417331488	93.1132047516545
111531.3	2.99687044799386	4.96021702002593	5.79525541868638	-58.8604126600256
95109.37	6.491484017248	-2.00553514103244	6.79422813482902	17.168462607133
81109.37	188.455543544194	-167.033406591415	251.82464297616	41.5514665311045
69171.88	-24.7875617906935	-307.862719933986	308.858992980097	94.6032387936717
59000	10.1897487627821	12.3536419018602	16.0138517567766	-50.4829045289423
50312.5	-18.9824905516168	-393.566134369317	394.023650394173	92.7613513696647
42906.25	-48.1627010223328	-453.7805727062	456.32932618377	96.0584942975245
36593.75	-28.0333527425944	-521.664181580735	522.416871100359	93.0760197907505
31203.13	-66.9847248979375	-613.710944511859	617.355713331698	96.2290065373554
26609.38	-143.541126151169	-788.440545217803	801.40036700771	100.318091729645
22703.13	-110.772806321467	-791.795223814628	799.506279572581	97.9640373325706
19359.37	-83.8770530348298	-951.864457283683	955.552879261932	95.0358219289955
16500	-192.015428447892	-1093.90643467998	1110.6309974948	99.9558105157839
14112.02	-59.2963291860833	-1377.11876137261	1378.39476840975	92.4655332600386
12011.13	47.3915093035122	-38.2869983344536	60.9249488758697	38.934304184928
10236.38	-208.014921393132	-1735.38309677655	1747.80568144744	96.8352531803834
8750.684	747.259012101316	-71.6592959382653	750.687075858511	5.4776971102018
7449.463	5.16817527446989	-36.0401936824521	36.4088670015465	81.8394006957629
6363.206	222.873453168768	-1391.46003024341	1409.19608000177	80.9000936864254
5414.761	720.209181327948	109.576900773239	728.497331533988	-8.65097515712128
4620.567	43.3825194287554	135.921296763105	142.676704145247	-72.2982783081263
3941.215	19.2464977147642	26.7762784167228	32.9756995397259	-54.2918305481468
3361.769	292.692395073127	-14.7775396556414	293.065204027905	2.89031195359601
2867.244	6.0906483566396	-11.7706972146817	13.2531245494771	62.6410746711963
2442.658	32.0475096828791	4.11458184492343	32.3105657739508	-7.31618402969475
2083.003	100.808678017653	173.313515967849	200.499287731415	-59.8153614171701
1777.843	30.8934632441743	13.3533547868368	33.655878465467	-23.3758759004244
1513.548	8.85393353837313	1.08084334951861	8.91966150972823	-6.95994179099421
1292.065	45.3114518895691	20.508853917659	49.7367144206029	-24.3524423551792
1101.762	10.6184489790569	-1.47763095108539	10.7207673208796	7.92223013749438
939.101	-5.2637139468288	59.2767414575088	59.5099887610003	-95.0744965801668
801.2801	3896.36927415833	699.767954175748	3958.70795971317	-10.1814886673645
684.3433	-4762.95771711063	-19604.9195262237	20175.1985329685	103.655284407385
582.9476	51.7428186444376	-66.725896507433	84.4373409457677	52.2080919092371
497.0677	-3970.98762812036	-28379.5472626993	28656.0193603101	97.9653551354994
423.5089	-17055.0244628365	-45854.1743534182	48923.1965948836	110.402206219727
361.5036	-5505.89197716091	-38719.1645851278	39108.6761810519	98.0932393153726
308.1262	-21129.9060836253	-65072.9191077133	68417.525037828	107.989194465534
262.7298	-20170.6067955328	-71159.2689426764	73962.7942614133	105.825763126899
224.2111	-39270.4014067389	-81827.4524622408	90762.8580593774	115.637149706499
191.2854	-23656.8469783493	-93470.1491399723	96417.4008631518	104.20303205953
163.1722	-27348.37373085	-113731.170902164	116973.128454784	103.520925804426
139.1537	-29708.8470101892	-131163.688907981	134486.166123599	102.762272387894
118.6706	-28398.6510777969	-146700.246383742	149423.711880308	100.955965642964
101.1982	-36158.7210221172	-170057.244950892	173858.90735376	102.003848154479
86.24196	-45868.9070927748	-207064.402274141	212084.000638975	102.490461209884
73.61024	-207921.768344815	-288402.598188488	355538.352914992	125.789446174201
62.69291	-189497.01914593	-336004.523227719	385756.607065491	119.421765126456
53.57697	-364345.98092885	-2403705.76661701	2431162.15137676	98.6190999797437
45.65746	-134901.802964219	-491135.060423718	509325.184946127	105.358859819647
38.96512	-223534.244040439	-568768.863864712	611118.301771994	111.455531830296
33.18414	-248603.650567384	-608967.77786573	657757.95666351	112.207137865948
28.30617	-260416.397526156	-703521.653722019	750172.924968814	110.312595620569
24.17237	-281433.588391345	-813229.325543809	860550.289407463	109.089158840626
20.61345	-2091658.56258879	-1500128.32410281	2573989.22515742	144.35207552507
17.55618	-325717.299536925	-1081914.60322254	1129880.95296975	106.754756895924
14.98558	-33792.0302518886	-1497574.85291103	1497956.05455569	91.2926313576263
12.76553	9007344.32899938	5389033.41002625	10496377.1347802	-30.8917987470797
10.8809	5930399.73159611	-14000112.8270384	15204367.7983111	67.0426510449503
9.278505	4044796.68601238	-564634.198236959	4084016.65141016	7.94686159310705
7.923394	14750731.8290596	-3551797.17785427	15172321.927953	13.5384082819903
6.75822	1151580.09975108	-664194.146434554	1329394.82107485	29.9749574128893
5.761429	7693015.56123733	-3992107.57653293	8667145.51210785	27.4259827739113
4.919708	4680277.20436663	2252104.94417612	5193936.02090904	-25.6964179960617
4.191257	13026143.6663076	-12097668.7152464	17777345.3349801	42.8835418385821
3.564097	7461815.31524711	-4772025.39414934	8857252.06603394	32.5999750104371
3.051758	24448890.6245879	-18006853.9845579	30364371.2794165	36.3720197363691
2.604164	-1894806.06063304	-7945894.97805322	8168692.49082514	103.412464893808
2.214424	1534263.10325108	-3481761.27927649	3804816.01077722	66.2189669186703
1.892567	12851699.5657456	-13764286.2149705	18831403.4722803	46.9637404554693
1.607507	-7501918.12468812	-11169024.0581938	13454585.6109371	123.888143026839
1.376413	24585201.1993568	11582461.3918492	27176930.1045304	-25.2258362997649
1.17375	6970944.99158543	-20462163.4327171	21616988.8380166	71.1873131433677
1.001604	6765653.72052866	-26878775.4243387	27717190.3081488	75.8715868932392
