EC-Lab ASCII FILE
freq/Hz	Re(Z)/Ohm	-Im(Z)/Ohm	|Z|/Ohm	Phase(Z)/deg
6999984	1.90150806652094	2.71536858797401	3.31495995384562	-54.997359317915
5969734	4.28718990612517	4.12785171711012	5.95139959082151	-43.9152382923844
5091109	5.90576294609478	4.58667204522965	7.47767319598532	-37.8344658605507
4341796	9.5612348819907	5.7594684840552	11.1619303746001	-31.0637949476
3702781	17.7497329246819	6.66315032583082	18.9591822387506	-20.5758540739319
3157797	32.5374391375626	-3.2963971073992	32.7039933268135	5.78494859262968
2693047	1.04831260075696	-13.146021367133	13.1877532997104	85.4406696212781
2296687	-1.04815363221155	-13.6215828440678	13.6618499923883	94.4001252552979
1958656	-3.80169039508526	-16.6273813171184	17.056455063258	102.878754707644
1670375	0.971635761256228	-20.0352585743416	20.0588051038261	87.2235423923867
1424531	6.79156971468753	-13.6752646713135	15.2688664615267	63.5895490052559
1214875	0.419796731990994	6.09114914203244	6.10559801875892	-86.0574586877365
1036062	3.97609015328361	1.30991103451697	4.18630622690077	-18.234313075103
883578.1	0.667245958597365	-1.01601628475553	1.21552715319443	56.7059882179306
753531.2	-0.05566403679151	-12.2643010539462	12.2644273745992	90.2600468192415
642624.9	4.63821178873023	3.75654039275973	5.96863504660417	-39.0044055711622
548046.8	-2.48857480223526	-3.75463281476453	4.50447245746124	123.536461532188
467390.6	-9.79979490339867E-05	-0.102974339220109	0.102974385851123	90.0545268581281
398593.7	0.00514303278218178	-0.01670366022817	0.0174775012864181	72.8864767806076
339937.5	-0.00503389343233022	0.0210090210277743	0.0216036813444727	-103.474401631462
289906.2	-0.0181768254452552	0.00380735025340775	0.0185712923411215	-168.16975918132
247234.4	-0.017349181561255	0.00557122802188895	0.0182217639792987	-162.196960645979
210843.7	-0.0156111899572728	0.00862689586306554	0.0178362715866919	-151.074532039561
179812.5	-0.0124859708201447	0.00989122225228013	0.0159290848753312	-141.614196701038
153343.8	-0.0119278893007383	0.00959690700343492	0.0153093163532291	-141.180639537462
130781.2	-0.0108629340964036	0.010306731761752	0.0149743800135937	-136.505017450297
111531.3	-0.00840640355463428	0.0100851330616358	0.0131292623400657	-129.812698515831
95109.37	-0.00619144509495119	0.00914074051072317	0.011040250425066	-124.11159656694
81109.37	-0.00462707214310511	0.00824408601351112	0.00945382202157778	-119.303735820659
69171.88	-0.00350475816107833	0.0075524772106744	0.00832605799796046	-114.893851558876
59000	-0.0035770455390479	0.00655314668599449	0.0074658546916333	-118.627989397082
50312.5	-0.00242117375834402	0.00573562047056403	0.0062257067510803	-112.886035557399
42906.25	-0.00196389951657734	0.00478370868026975	0.00517114784635876	-112.320067847369
36593.75	-0.00148216735863251	0.00426937733794977	0.00451933655892043	-109.145079521431
31203.13	-0.00119627840180935	0.0036724994332711	0.00386242593482542	-108.042479540481
26609.38	-0.00100652615425045	0.0031870797458582	0.00334224059661326	-107.526874820643
22703.13	-0.000696821191732849	0.00282607237073732	0.00291071208089925	-103.851064085981
19359.37	-0.000615814883036892	0.00241160908224879	0.00248899303650183	-104.324613703656
16500	-0.000495413339749741	0.0020921861852205	0.00215004125793658	-103.321822970618
14112.02	-0.000392576923153035	0.00179207927842429	0.00183457482288132	-102.356159902705
12011.13	-0.000293014822909952	0.00158135392184201	0.00160827171602626	-100.497484815301
10236.38	-0.000199401552815327	0.00140325113586825	0.00141734778003872	-98.0875670332008
8750.684	-0.000111455152108299	0.00126230343385973	0.00126721435048123	-95.0458486904103
7449.463	-9.66339563811125E-05	0.00113888764203375	0.00114297995726219	-94.8498971244755
6363.206	-1.42982229858498E-05	0.00101596042848618	0.00101606103725631	-90.8063047811193
5414.761	-4.40353538403692E-05	0.000909964328025888	0.000911029193092873	-92.7705186943868
4620.567	1.69439494494985E-07	0.000776081982438477	0.000776082000935068	-89.9874907960978
3941.215	2.84768494688523E-05	0.000698340151099238	0.000698920523087553	-87.664891781976
3361.769	4.77941657896352E-05	0.000601822998608084	0.000603717818137872	-85.4593480453994
2867.244	8.25099692086374E-05	0.000491134877467363	0.000498017432309042	-80.4634425507562
2442.658	7.81318827824537E-05	0.000463395436039765	0.000469936082089485	-80.4295234492844
2083.003	8.02733145916914E-05	0.000420157379911191	0.000427756974144635	-79.183684019552
1777.843	0.000124290282756102	0.000326864767097391	0.000349697941597064	-69.1807003532605
1513.548	0.000130203455137316	0.000303654121101687	0.000330391835540367	-66.7908933897698
1292.065	0.000148564402471028	0.000268620786107344	0.000306966624261501	-61.0546118322586
1101.762	0.00013733104169256	0.000211363207515978	0.000252059954185122	-56.9866229459856
939.101	0.000146572951044614	0.000140896823321005	0.000203311447783634	-43.8688344405568
801.2801	0.000129119505446633	0.000112730149043922	0.000171405756000923	-41.1231805792442
684.3433	0.000141716185041474	9.19442379902166E-05	0.000168929630326686	-32.9751592338447
582.9476	0.00013521596671669	2.99505628199499E-05	0.000138493299001652	-12.4894600689766
497.0677	0.000151682417956999	3.81829127366307E-05	0.000156414483799726	-14.1294600842914
423.5089	4.23050005305742E-05	1.80156102271158E-05	4.5981249240829E-05	-23.0667594403734
361.5036	8.68225683737415E-05	-6.69941223446382E-05	0.000109664811164481	37.6545341945678
308.1262	8.44530725488376E-05	2.63342268846075E-05	8.84636251153502E-05	-17.3185660903013
262.7298	6.48387115659985E-05	-5.1297235588231E-05	8.26768703842449E-05	38.3493314648332
224.2111	-1.11243891613571E-05	-0.000105356099373743	0.000105941775091148	96.0274399850284
191.2854	8.33359893756567E-05	3.77641956019799E-06	8.34215108345216E-05	-2.59461702989592
163.1722	-1.25907589521406E-05	-8.47168463207685E-05	8.56473657594186E-05	98.4535151769508
139.1537	7.59506029080739E-05	-2.76669713466569E-05	8.08328855454057E-05	20.0154612432483
118.6706	-5.8891091556411E-05	-4.96124090478252E-05	7.70035830090672E-05	139.88776027275
101.1982	-8.2602063575444E-05	-6.50586639014657E-05	0.000105146234623811	141.775484320367
86.24196	2.98100587905353E-05	-5.52201808486077E-05	6.27527527527527E-05	61.6380547550403
73.61024	3.17328210654531E-05	-9.65551667193312E-05	0.000101635978634389	71.8069097030221
62.69291	8.62564465411802E-05	-1.90917138638049E-05	8.8344032668703E-05	12.4804474428592
53.57697	6.91054266496426E-06	-6.69394349445704E-05	6.72951970843586E-05	84.1059071417414
45.65746	-7.91256440815284E-06	5.05102818649145E-05	5.11262872658115E-05	-98.9031724545695
38.96512	0.000105329919996751	6.35241738313747E-05	0.000123002897150761	-31.0940585783388
33.18414	8.03836054265754E-05	-4.31112212493129E-05	9.12145899458117E-05	28.2054861246089
28.30617	-2.79381918649292E-06	-8.00685898845865E-05	8.01173171777046E-05	91.9984007696685
24.17237	5.86349911526884E-05	-2.79604922344999E-05	6.49603826456662E-05	25.494456102856
20.61345	-9.27731261973776E-05	-6.39611144204573E-05	0.000112684857466926	145.416230037967
17.55618	4.05497106148488E-05	-9.39196058755653E-05	0.000102299420324699	66.6477685325462
14.98558	6.116446823822E-05	3.05463306719794E-05	6.83679054263485E-05	-26.5381388337325
12.76553	3.93616710971967E-05	8.53882776461915E-05	9.40239283956322E-05	-65.2515849773714
10.8809	7.27336309642272E-05	-3.64677067415771E-05	8.13638415282247E-05	26.6285974104277
9.278505	6.55947938457175E-05	-0.000195765366623724	0.00020646248024516	71.4756255058775
7.923394	9.15178491605806E-05	5.58075293290207E-05	0.000107191403782152	-31.3748136275309
6.75822	4.84947437123965E-05	-8.75089468500667E-05	0.00010004776832363	61.0061396027905
5.761429	6.61135346797066E-05	4.32302256721058E-05	7.89927330803661E-05	-33.1798140286874
4.919708	-9.15194641472523E-05	6.96228501099715E-05	0.000114991971786015	-142.738168007746
4.191257	8.19824892746529E-05	3.50284559912679E-05	8.91522365215858E-05	-23.1354456208537
3.564097	-2.23725167377301E-06	7.53450940614189E-05	7.53783025424151E-05	-91.7008064908775
3.051758	0.000113810513178401	7.64289947801114E-05	0.000137092028043316	-33.88317701799
2.604164	8.82097666046675E-05	-8.06675014395181E-05	0.000119533295415732	42.4427997842556
2.214424	4.96989656798002E-05	0.000143951414780938	0.000152289188739962	-70.9528588136001
1.892567	6.33110842718112E-05	-2.57597553283973E-05	6.83509940399646E-05	22.1402236602894
1.607507	7.24775990997027E-05	-5.312539630474E-05	8.98627292251515E-05	36.241064502714
1.376413	5.81806766705629E-05	3.43380271618093E-05	6.75580583439883E-05	-30.5489522616293
1.17375	9.73041011358371E-05	6.37497008526687E-05	0.00011632760831659	-33.2311911541768
1.001604	6.427260338342E-05	3.33104682232187E-05	7.23916765860032E-05	-27.3962863713897
