EC-Lab ASCII FILE
freq/Hz	Re(Z)/Ohm	-Im(Z)/Ohm	|Z|/Ohm	Phase(Z)/deg
6999984	9.20981009891662	4.42761671922635	10.2188253664734	-25.6759232957299
5969734	6.68760004676223	-5.17001542626654	8.45299082534035	37.7067077313925
5091109	28.0454395650571	27.1582963943275	39.0399762223213	-44.079316216176
4341796	14.3663161261655	-3.69710470625129	14.8344067035359	14.4316552141772
3702781	11.6707298377305	-7.54498407013103	13.8972198501652	32.8821739132729
3157797	19.6423130490498	-20.2124276298535	28.1844406119571	45.819549468171
2693047	11.7562634610188	-4.87050895217988	12.7252343011102	22.5037653812999
2296687	-5.65896323454905	-7.47348450466849	9.37426453283125	127.133204091122
1958656	8.92541963987336	-4.96067723551559	10.211338520625	29.0649571947728
1670375	12.4310648304625	-6.66589703291393	14.1055150941953	28.2014983383547
1424531	-4.82278018331029	-7.67730251312132	9.06643163402831	122.136496455565
1214875	1.90275848036625	-11.4959597055474	11.6523636823683	80.6018691540598
1036062	-10.7849010570949	-8.55943099222028	13.7687308682358	141.562745091035
883578.1	-0.167828467859086	0.940432747199228	0.955290608468761	-100.118415938042
753531.2	1.21620603327332	8.87029760709936	8.95328636612741	-82.1928583595791
642624.9	1.19797231390816	2.97039597987362	3.20287213952412	-68.035586903912
548046.8	-3.6342893942501	-8.01585123914175	8.80124596231744	114.388961149806
467390.6	-0.00285444827399475	-0.113047289273393	0.113083320993907	91.4464132298394
398593.7	-0.0149423560194039	-0.0107917155149366	0.0184319051420611	144.162311903323
339937.5	0.0152196233812119	0.0124737304304239	0.019678183013602	-39.337431560004
289906.2	-0.0159857624104903	0.00377358904149318	0.0164251202156551	-166.717941424238
247234.4	-0.0170976410236558	0.00768211396674992	0.0187441778579891	-155.805215370838
210843.7	-0.0149602089486013	0.00833834632518189	0.0171270508618525	-150.866089993692
179812.5	-0.0127887244329782	0.00972857733727123	0.0160684999184716	-142.739199331777
153343.8	-0.0124770253576004	0.00999967488743921	0.0159896735310226	-141.289673405876
130781.2	-0.0100827040362411	0.0107586701660703	0.0147448263612945	-133.142328150674
111531.3	-0.00752775057409425	0.0100998036163887	0.0125965495988145	-126.698501011956
95109.37	-0.00595482100287807	0.00933261581738157	0.0110705741120846	-122.540546292692
81109.37	-0.00480590274633278	0.00864265969364448	0.00988899730950292	-119.077016421126
69171.88	-0.00368795154818708	0.00762341243911487	0.00846861286390084	-115.816141721698
59000	-0.00269348888821137	0.00715457239842751	0.0076447883290029	-110.629899647512
50312.5	-0.00219393120829623	0.00589933021922904	0.0062940790575147	-110.399914388547
42906.25	-0.00186799458533442	0.0049694950220598	0.00530898149790671	-110.600850687299
36593.75	-0.00152745971565662	0.00427622926730802	0.00454084462732821	-109.656616240923
31203.13	-0.00123741035231945	0.00372786764522665	0.00392787239613955	-108.362820243738
26609.38	-0.000968150337043476	0.0031894240825703	0.00333312781837072	-106.885677752112
22703.13	-0.000969112366174096	0.00283454592824607	0.00299563505748079	-108.875216399924
19359.37	-0.000612781479022951	0.00240777347346053	0.00248452696514522	-104.278719784266
16500	-0.000474059946200952	0.00210545607813142	0.00215816545462404	-102.688991085896
14112.02	-0.000408305773692314	0.00181850261997249	0.00186377718187483	-102.654670913968
12011.13	-0.000300128366429827	0.00160898227860361	0.00163673486221694	-100.566125159157
10236.38	-0.000200154250519191	0.00141502900976808	0.00142911469885595	-98.0510123258715
8750.684	-0.000136599879381715	0.00127611280550299	0.00128340306194735	-96.1098886117477
7449.463	-9.73932403010672E-05	0.00116250371631533	0.00116657632999444	-94.7889917108531
6363.206	-5.20306398036416E-05	0.00100973101144486	0.00101107067159117	-92.9497971884832
5414.761	2.07928370421351E-05	0.000906110464108534	0.000906349003000083	-88.685444206663
4620.567	5.21214029823077E-06	0.000829508296493093	0.000829524671337363	-89.639991893351
3941.215	7.21293473095935E-05	0.000734641871661815	0.000738174317043124	-84.3925006308658
3361.769	5.80198826604628E-05	0.000631810375147585	0.00063446879901857	-84.7531775629007
2867.244	6.68790625337641E-05	0.000532883408098695	0.000537063809646745	-82.8465459080438
2442.658	7.29220573550617E-05	0.000468539243172823	0.00047417997515907	-81.1536275107708
2083.003	5.44739370478909E-05	0.000380517698709672	0.000384397097867299	-81.853037091287
1777.843	0.000125536483813852	0.000338050737181663	0.000360607417668316	-69.627320954565
1513.548	0.000140084014796044	0.000294346181707555	0.000325980376536986	-64.5494824952181
1292.065	0.000131065461042329	0.000220952623641058	0.000256901181336531	-59.3242792909635
1101.762	0.000149782309857774	0.000208713573652416	0.000256897053648135	-54.3350659433674
939.101	0.000115464602794344	0.000211688325330514	0.000241130714716506	-61.3899067339691
801.2801	0.000174603150959006	8.80233767496483E-05	0.000195536122440904	-26.7542241365881
684.3433	0.000131100035508903	7.31086303675281E-05	0.000150106932367067	-29.1464547115522
582.9476	9.01996585143965E-05	8.15430227578721E-05	0.000121594584404917	-42.1144663197559
497.0677	0.000112108662322309	-3.19741999630181E-05	0.000116579164652062	15.9185322587433
423.5089	8.48264869857808E-05	-3.36692027466793E-05	9.12641666150841E-05	21.6490441312576
361.5036	9.40690791765551E-05	-4.48487253163137E-05	0.000104213242055044	25.490113082769
308.1262	3.18033783671199E-05	-0.00010525531405703	0.000109955154553146	73.1875661019489
262.7298	5.05865263173566E-05	-8.94211473513822E-05	0.00010273820242974	60.5026815882091
224.2111	-5.73309939240919E-06	-9.80399217978318E-05	9.82074065168621E-05	93.3466850531703
191.2854	-5.80483316510578E-06	-9.5832669705328E-05	9.60083156342471E-05	93.4663186407936
163.1722	-5.78310781973543E-06	-0.000101990664497999	0.000102154490751989	93.2453288192117
139.1537	3.16129327012952E-05	-4.82034844189905E-05	5.76450641781973E-05	56.7422335280505
118.6706	4.57681735861769E-05	-2.69842771271139E-05	5.31307531048385E-05	30.5230087326658
101.1982	-4.29805656504716E-05	-5.39879824740338E-05	6.90074726044294E-05	128.523772659904
86.24196	3.72625016840639E-05	-8.20304481868708E-05	9.00971057331685E-05	65.5699776241256
73.61024	-4.92397726392636E-05	-0.000112027439782758	0.000122371166840256	113.727080304871
62.69291	-5.97099480819515E-07	-8.67400342551643E-05	8.6742089382128E-05	90.3944054221997
53.57697	1.07479273684756E-05	-6.28626771272213E-05	6.37748705864567E-05	80.2976858606248
45.65746	5.19874131121965E-05	4.29660995785296E-05	6.74446205051989E-05	-39.5727510560422
38.96512	-1.60418590903564E-05	8.93567982738666E-05	9.07853437556489E-05	-100.177659774059
33.18414	-2.49815360819562E-05	-9.35217385100449E-05	9.68007888343648E-05	104.955669419213
28.30617	3.83068418503017E-05	-8.61316727224928E-05	9.42660022410977E-05	66.0230153527355
24.17237	5.70040323390991E-05	6.78175909321024E-05	8.85928063826349E-05	-49.9512913683081
20.61345	8.88868528550311E-05	-4.80075155543028E-05	0.000101022740807051	28.3733455698483
17.55618	8.67256691560042E-05	-6.20353843416757E-05	0.000106628938853278	35.5763647054268
14.98558	-2.50338823069759E-05	-8.75165301109281E-05	9.102658021708E-05	105.963043814613
12.76553	1.51079931672639E-05	0.000109344596751045	0.000110383387772756	-82.133328044665
10.8809	-4.32275558896534E-07	-8.90791832630806E-05	8.90802321111498E-05	90.2780376940087
9.278505	0.000196672088996553	0.000110683264518067	0.000225678301204712	-29.3699712770107
7.923394	7.95978232986573E-05	-4.65032117885194E-05	9.21865618218412E-05	30.2946334851046
6.75822	-2.5949568100209E-05	-4.45977989511012E-05	5.15979045685988E-05	120.193310093379
5.761429	8.25495540319542E-05	5.59594077344942E-05	9.972905386531E-05	-34.1329006729978
4.919708	3.89513498961672E-05	0.000114931175362845	0.000121352308297036	-71.2779550665574
4.191257	8.4641503119407E-05	-1.92065675061066E-05	8.67932963176259E-05	12.7848656489902
3.564097	-6.80452198850596E-06	-7.72340919161522E-05	7.75332604345045E-05	95.0349051965233
3.051758	5.62536509946174E-05	-3.00948418289338E-05	6.37979055685433E-05	28.1460990491435
2.604164	6.3884315744555E-05	4.02636620295543E-05	7.55140270292889E-05	-32.2215478459091
2.214424	7.18875762265208E-05	-1.95843218914589E-05	7.45075115654261E-05	15.239256415148
1.892567	9.31915967224031E-05	-2.20464665610875E-05	9.57638783023127E-05	13.3098439583567
1.607507	2.87103221763217E-05	-7.39385795431916E-05	7.93170608654473E-05	68.7788277557557
1.376413	-6.90662758994786E-06	-5.89910358618326E-05	5.93939712152526E-05	96.6777470825019
1.17375	5.46273108254649E-05	-3.17268620742524E-05	6.31722792457308E-05	30.1474864641591
1.001604	-9.44968428174181E-06	6.22652355179267E-05	6.29782191485872E-05	-98.6296424031741
