EC-Lab ASCII FILE
freq/Hz	Re(Z)/Ohm	-Im(Z)/Ohm	|Z|/Ohm	Phase(Z)/deg
6999984	15.0057307409898	116.557882750536	117.519836565402	-82.6640588502947
5969734	19.7924322632986	92.7444180559026	94.8328395410856	-77.953314450288
5091109	15.2911911824836	86.098530427941	87.4458545022596	-79.9292167025762
4341796	12.5620287902679	87.3288832466922	88.227764430716	-81.8143051443361
3702781	11.781151847923	99.2844489416595	99.9809848946929	-83.2328913493005
3157797	14.6311143608826	104.967067168048	105.981860227601	-82.0648022923673
2693047	14.4048544544401	115.107587716556	116.005416174324	-82.8669432055505
2296687	12.5894148125848	130.89944041489	131.503448115457	-84.5064046405378
1958656	14.5756679135778	149.609386825311	150.317725905405	-84.4355297612801
1670375	14.8705598362961	171.905774188494	172.547757879349	-85.0559857576273
1424531	16.988219796264	199.211869141297	199.934910454916	-85.1257720170742
1214875	19.9314596227793	228.906795818211	229.772897127696	-85.0236709379819
1036062	21.9457098643802	264.511589958152	265.420412560227	-85.2572085352772
883578.1	23.8374392129446	306.307750662195	307.233887492842	-85.5501045601481
753531.2	26.6550262082982	355.736720906288	356.733941507285	-85.7148872220278
642624.9	29.2602089334146	413.736291571421	414.769669563843	-85.95467005929
548046.8	32.6141581356876	481.570438530624	482.67356523584	-86.1255833695775
467390.6	142.765319116542	669.63334012507	684.682953307226	-77.9647736061907
398593.7	164.487359327587	759.536919234956	777.143759583445	-77.7805676750561
339937.5	186.88495513154	862.609783632495	882.622017215193	-77.775754829577
289906.2	206.872400076588	981.470017653123	1003.03518655403	-78.0975279273225
247234.4	227.2186287427	1120.12615461078	1142.93959048187	-78.5330904431809
210843.7	247.231908300173	1282.72800837052	1306.33638850793	-79.0906356736227
179812.5	267.004919710235	1472.72035662988	1496.7287249136	-79.7238686288013
153343.8	286.796009122099	1697.97636910116	1722.02662606427	-80.4129649690052
130781.2	308.197081295694	1960.74112479996	1984.81515497061	-81.067110883706
111531.3	330.474907622129	2269.81990176493	2293.75152338173	-81.7162147698097
95109.37	354.083657459346	2631.18449074437	2654.90245787176	-82.3356394421257
81109.37	381.918968419093	3048.95194434276	3072.77888194868	-82.8601823035679
69171.88	408.941713283328	3535.25943059884	3558.8330343669	-83.4016274199666
59000	427.476942984042	4091.86637655763	4114.13502213842	-84.0359489949559
50312.5	306.515053866103	4752.05673835115	4761.93182676476	-86.309445526035
42906.25	1717.31734782805	6356.0525083859	6583.96403107656	-74.8804844992219
36593.75	1817.88958852874	7089.24961119866	7318.61890017246	-75.6175947026577
31203.13	1921.14094351641	8069.93281193053	8295.4564741145	-76.6093273502497
26609.38	2037.73671472522	9250.49149993335	9472.2734287434	-77.5770530662256
22703.13	2145.16757593548	10598.86426286	10813.7721259224	-78.5581286988281
19359.37	2295.52229103322	12282.6961139371	12495.3609958238	-79.4140703489741
16500	2421.17893611609	14207.9016137353	14412.7227027469	-80.329083947798
14112.02	2593.37306628808	16420.4911381556	16624.022169114	-81.0251130773229
12011.13	2791.07692418502	19089.6376594003	19292.5990049011	-81.6817800063224
10236.38	3012.45778408709	22181.0506003656	22384.680199567	-82.2658531826787
8750.684	3252.07241341771	25732.1213569427	25936.8086801468	-82.7970423545445
7449.463	3559.29054155113	29936.2002993064	30147.0502291578	-83.2195987284535
6363.206	3893.74867566886	34786.6390370726	35003.8788457059	-83.6133353252674
5414.761	13702.260599489	46614.0509021153	48586.2293972408	-73.6192325048005
4620.567	14877.3140799913	52805.350673041	54861.0930800466	-74.265414306149
3941.215	16119.4790658242	59877.9334249731	62009.7130827023	-74.9328528416969
3361.769	17439.496559039	68319.3150404604	70510.0336677725	-75.6802189896655
2867.244	18495.378448691	78312.474219424	80466.9040185358	-76.7117149082396
2442.658	19876.2455339801	90076.0939931757	92242.9826360493	-77.5564838813804
2083.003	21052.3397309207	103912.981814309	106024.095363681	-78.5471279091616
1777.843	22585.1688500165	120169.347343207	122273.308178343	-79.3557432454298
1513.548	24687.465356339	139322.349614065	141492.713761891	-79.9516766481453
1292.065	25317.5006001777	162384.821891676	164346.603912072	-81.1383295376408
1101.762	30299.1280510118	186446.254060236	188892.14598216	-80.7696311964741
939.101	33540.3756989176	218965.200985337	221519.109885747	-81.2913092689407
801.2801	33371.3463317556	251826.996009261	254028.507603069	-82.4513196209626
684.3433	27130.9719196329	286561.351612297	287842.835372309	-84.5914888731147
582.9476	132702.925481029	399652.474567489	421108.260259925	-71.6314700261531
497.0677	140898.879233311	452848.894703501	474262.180237245	-72.7170531605875
423.5089	162333.223003606	509691.656163177	534918.367279625	-72.3336870998654
361.5036	166281.716814322	585311.26875869	608472.588275451	-74.1406240983695
308.1262	190131.713485162	660249.724534189	687080.611879186	-73.9352187288151
262.7298	199494.450849382	754425.060626624	780355.821418141	-75.1881628352072
224.2111	226605.543987016	879969.087759119	908677.978151373	-75.5592103033339
191.2854	260392.618306831	1011445.43430566	1044426.24547952	-75.5629345290022
163.1722	275288.782520353	1162473.55777953	1194624.91448912	-76.6770509616342
139.1537	353516.332556611	1338029.46714909	1383942.43100772	-75.2002522446844
118.6706	357557.396104126	1599290.48663499	1638773.12406262	-77.3974880932316
101.1982	482192.363133774	1764227.57184857	1828936.41232692	-74.7134673019413
86.24196	437813.235441138	2093670.07312141	2138956.47552999	-78.1889146956458
73.61024	648750.3135588	2559524.55093799	2640462.62919909	-75.7770488570426
62.69291	950923.702596109	1797736.2097848	2033743.19129297	-62.123120824398
53.57697	1243163.11759721	3173291.14793966	3408112.56365546	-68.6068258256575
45.65746	1208296.95719192	4054074.4876788	4230307.4933635	-73.4035711907132
38.96512	1414603.37471381	4207415.68424121	4438856.77261055	-71.41649626142
33.18414	1863025.98715589	4871830.27382821	5215898.39297193	-69.0727551046578
28.30617	1803651.96063982	5556021.45669029	5841449.71923262	-72.0150079742137
24.17237	2857565.0979452	7047490.2099366	7604787.73853333	-67.9287875708997
20.61345	3602219.02679212	7286541.58121517	8128325.17384491	-63.6937700281902
17.55618	5397492.5679203	7296495.08021243	9075889.29396558	-53.5082706562598
14.98558	5582982.57277749	7594152.93450209	9425542.59448993	-53.6778432453067
12.76553	6580286.334191	8871118.45017188	11045221.1746493	-53.4332647512992
10.8809	9048770.32313941	8302831.59854354	12280767.7656856	-42.5383920627953
9.278505	8725629.42532188	12567495.7741146	15299626.1032886	-55.2276998107135
7.923394	9052872.95551367	9444159.00620903	13082302.8585655	-46.211853670497
6.75822	12212196.3612579	10165320.5375165	15889351.2012409	-39.7736873547946
5.761429	8865497.96611365	6229809.9562119	10835478.1287067	-35.0958192730726
4.919708	15310931.1878873	-11168.2499238563	15310935.261114	0.0417932432614938
4.191257	11557022.1608346	6537938.68346666	13278155.1224104	-29.4973340652903
3.564097	11302133.5895625	5768623.92016498	12689178.2873682	-27.039826408727
3.051758	11074815.4760694	8590744.13347362	14016148.6363336	-37.8007644830411
2.604164	11341211.851091	5273385.25974696	12507265.0227395	-24.9372718358252
2.214424	14201950.1368046	3326729.02353449	14586381.1030807	-13.1835239532642
1.892567	10273577.5498299	2803964.96245725	10649348.1107088	-15.2659161413554
1.607507	16270382.5141949	2227974.81656205	16422217.2358501	-7.79726804237635
1.376413	12383279.4001641	6387064.02660855	13933420.0963915	-27.2838376745173
1.17375	17384301.8911151	567929.058609176	17393576.2756553	-1.87113462761731
1.001604	16769852.1691325	4211209.57444286	17290524.2215046	-14.0965092814934
