EC-Lab ASCII FILE
freq/Hz	Re(Z)/Ohm	-Im(Z)/Ohm	|Z|/Ohm	Phase(Z)/deg
6999984	2.66631589382369	0.858834132897479	2.80122053995871	-17.8540180681629
5969734	4.69251853552199	0.601100994847214	4.73086171983749	-7.29970576350679
5091109	5.93827575387315	-1.93964022843295	6.24702514360181	18.0887760655619
4341796	3.84243149032208	-4.70642264453282	6.07574636294094	50.7710106266459
3702781	1.321286119883	-5.64967339080945	5.80212085649858	76.8368488906961
3157797	0.983519978901738	-7.63574984445763	7.69883025115073	82.6604492161853
2693047	1.79709396279197	-7.45269777816661	7.66630620858525	76.4428831107642
2296687	-0.0448883393775946	-6.56283393279356	6.56298744417804	90.3918844079011
1958656	-1.01964797278542	-15.4432764434372	15.4769011529062	93.7774920193292
1670375	5.9123680777442	-9.54505658820237	11.2278315608453	58.2252316483435
1424531	-4.12891820847412	-6.76574037919251	7.92610928835233	121.394401519312
1214875	3.98031489613837	-11.3666225811812	12.0433805708961	70.7009865668606
1036062	2.36942258014746	-8.61489883313331	8.93479967701763	74.6217367589409
883578.1	8.47134277977825	-4.25878411326121	9.4816080184675	26.6899726494422
753531.2	6.56502511395808	8.3953584742238	10.657466803027	-51.9752074838282
642624.9	5.31758853789725	6.51275544392194	8.40789696242235	-50.768764632089
548046.8	5.97532125815042	-1.15830694063353	6.08655395990409	10.9706348977541
467390.6	0.0757112471622943	-0.125698609298884	0.14673899729296	58.9384495117224
398593.7	0.0363195978884293	-0.129870082180265	0.134853073514422	74.3757659774912
339937.5	0.038768592390025	-0.114365965632917	0.120758344850587	71.274001657771
289906.2	0.0422262494933892	-0.11335447205647	0.120964013167053	69.5688792594616
247234.4	0.0436873665468904	-0.108920770265714	0.117355529017932	68.1446207723254
210843.7	0.043372157520386	-0.103839736595134	0.112533705813503	67.330505041224
179812.5	0.0419732724562186	-0.0978094171318783	0.106435133674749	66.7742203179315
153343.8	0.0393531943069262	-0.0897684944808813	0.0980155931651831	66.3280580828632
130781.2	0.0376680269564419	-0.0813779128724925	0.0896729890115982	65.1616306035358
111531.3	0.0369696657225308	-0.0739166528319579	0.0826464019151219	63.4279176112495
95109.37	0.0346792558081457	-0.0685983478309645	0.0768660140019294	63.1815457593432
81109.37	0.0328473363762094	-0.062107121017246	0.0702583944312898	62.1264439796098
69171.88	0.0314636794410468	-0.0577139410268343	0.0657332648878622	61.402282622344
59000	0.029665566212119	-0.0542353623448953	0.0618184466592918	61.3222977141437
50312.5	0.0338766958640122	-0.0549912969853314	0.0645884917519499	58.3653771250325
42906.25	0.0351293450866733	-0.0549439049446511	0.0652142896671077	57.4064749591016
36593.75	0.0301672919743669	-0.0516174821966961	0.0597865367235211	59.6963007873419
31203.13	0.0914724628211462	-0.11089046686288	0.143749459462057	50.4811111710435
26609.38	0.0681519502863737	-0.108504477491851	0.128132392327686	57.8669611390482
22703.13	0.038721371517076	-0.0879283403900009	0.0960767279620996	66.2325460184149
19359.37	0.0206104543131449	-0.0701170157601726	0.0730834230595867	73.619633575257
16500	0.0118036915859425	-0.0704296209104943	0.0714118942239455	80.4859024963253
14112.02	0.00235316644783217	-0.043488533447886	0.0435521518845981	86.902743322893
12011.13	-0.00154141523170395	-0.0329589521590837	0.032994976713756	92.677642235796
10236.38	-0.00367803657443005	-0.0247399907563258	0.0250118990815558	98.4560934870289
8750.684	-0.00417773784677075	-0.0181440352749351	0.0186187945252756	102.966589137637
7449.463	-0.00416390980008158	-0.0133674233869031	0.0140009339984138	107.301645111377
6363.206	-0.0036116742756921	-0.0100654491644243	0.0106938046529431	109.738950276084
5414.761	-0.00284320512880616	-0.00833514192701385	0.00880672506371886	108.835052058485
4620.567	0.0321863993633503	-0.00626124516843306	0.0327897467973802	11.0083068727839
3941.215	0.0289303699716337	-0.00587450668134572	0.0295207746416787	11.4782353971943
3361.769	0.0358226857372202	-0.00584395937178561	0.0362962349916175	9.26536925999596
2867.244	0.0430723484667804	-0.00672505785878989	0.0435941923385195	8.87417086621449
2442.658	0.0502846671689947	-0.00737727887285926	0.0508229475322369	8.34633922702817
2083.003	0.0550094353272821	-0.00804513757234353	0.055594623962973	8.32052747835752
1777.843	0.0588084200091433	-0.00878586378213786	0.0594610937199282	8.49703285672552
1513.548	0.0621308789163401	-0.00928192780845722	0.0628203812369705	8.49675783698386
1292.065	0.0654691467495779	-0.00973724205474027	0.0661892971631394	8.45960152396963
1101.762	0.0680955800658421	-0.00946119523424377	0.0687497071976601	7.91003186603604
939.101	0.0702917231420292	-0.010260510374011	0.0710366413578997	8.30483416434889
801.2801	0.0720129052400921	-0.01152491850725	0.0729292963610457	9.09249070447114
684.3433	0.0751068494727819	-0.00979438106739304	0.0757427801062281	7.42978437173534
582.9476	0.0787830126977428	-0.00838825008452271	0.0792283145675408	6.07754667944708
497.0677	0.0836730796871304	-0.00631582197350568	0.0839111069616525	4.31662162963878
423.5089	0.0900311105574312	-0.00413782080238966	0.090126147311405	2.63145649724945
361.5036	0.0991359370495125	-0.00185546735783244	0.0991532993591281	1.07224524992152
308.1262	0.103111736536414	-0.000457237453888756	0.103112750315585	0.254070055545852
262.7298	0.108527120625215	0.000996839759114726	0.108531698598636	-0.526256520911725
224.2111	0.119878444650484	0.00287487400837542	0.119912911700047	-1.37377975946958
191.2854	0.131331538237981	0.0038265125525063	0.131387271583927	-1.66891375748824
163.1722	0.142362986431936	0.00357826676304949	0.142407948861175	-1.43981543718959
139.1537	0.144587348317708	0.000905089294472681	0.144590181133357	-0.358655995299868
118.6706	0.154315622129447	-0.00176897739578781	0.154325761019426	0.656774072107126
101.1982	0.16649471299869	-0.00457727150077242	0.166557620272709	1.57477851062163
86.24196	0.171239110627276	-0.00735974650606633	0.171397196234518	2.46102103376306
73.61024	0.180555862789396	-0.0108921895317046	0.180884104830739	3.45223400863482
62.69291	0.190625670208016	-0.0146803201687105	0.191190109426484	4.40372725731693
53.57697	0.204647953339795	-0.0185836663964531	0.20548999358339	5.18868287439293
45.65746	0.216197801129971	-0.0220339233284141	0.21731770059219	5.81924011666825
38.96512	0.231480763538192	-0.0276815338667922	0.233130030681255	6.81930930017935
33.18414	0.236466886021693	-0.0305061760903732	0.238426539975006	7.35102559321666
28.30617	0.233410118433116	-0.0325845024555429	0.235673573374777	7.94723974525184
24.17237	0.22194668595875	-0.0331230310455628	0.224404693787179	8.48810044469944
20.61345	0.229013516412205	-0.0352085081662098	0.231704185863728	8.7402133337129
17.55618	0.236026166993439	-0.0389586905337128	0.239219838378251	9.37278165784913
14.98558	0.254997163775578	-0.0446989955225901	0.25888521343313	9.94248505270361
12.76553	0.260581051756948	-0.0473554649368272	0.264849060021251	10.2999706098196
10.8809	0.276437242857837	-0.0511857297380739	0.281136138138913	10.4902040569589
9.278505	0.281776884884319	-0.0535703811236646	0.286823985379266	10.7643987393967
7.923394	0.276882276627781	-0.0540605723249124	0.282110511308388	11.0478696085377
6.75822	0.275831678196254	-0.0532047524544012	0.280916109150572	10.9176133833927
5.761429	0.254179184633966	-0.0480304381417772	0.258677368336078	10.7006056184869
4.919708	0.247762861343954	-0.0454594355407412	0.251898780745414	10.3969666349573
4.191257	0.275139104655678	-0.0539537604456224	0.280379270234003	11.0947089082897
3.564097	0.280052933190109	-0.056056297684528	0.285608042426119	11.3189244822582
3.051758	0.285651486013664	-0.0570801938381237	0.291298678319028	11.3002689764487
2.604164	0.280090295129423	-0.0558978927637058	0.285613633850189	11.2862945358255
2.214424	0.293378456342836	-0.0597145940478118	0.299393973533871	11.5048893938238
1.892567	0.309568068292261	-0.0641124610369768	0.316137306508453	11.7007091794657
1.607507	0.310261007463581	-0.065141467082299	0.317025714234587	11.8574188660119
1.376413	0.232578695453888	-0.12765948330854	0.265310748477396	28.7618224141029
1.17375	0.313675738021809	-0.193651369579094	0.368637113654317	31.6895909105978
1.001604	0.320217663155481	-0.19887724903723	0.376950277863505	31.843132140537
