EC-Lab ASCII FILE
freq/Hz	Re(Z)/Ohm	-Im(Z)/Ohm	|Z|/Ohm	Phase(Z)/deg
6999984	10.6166667086116	31.4826119755791	33.2245160808494	-71.3647008767402
5969734	39.984542376837	-41.1478855908331	57.3751872997497	45.8214975246744
5091109	-3.18722805950558	39.4067058949414	39.5353878467596	-94.624037161635
4341796	-1.24578689937631	-1.4031219976406	1.87636252864967	131.600842498654
3702781	18.5184510207518	28.1071235928592	33.6592249594706	-56.6210071177567
3157797	9.80662351262872	28.0036098684383	29.671063856595	-70.7001844259474
2693047	37.2575866554161	-19.3954392610317	42.0037001645594	27.5004443689665
2296687	-44.6663215598636	51.8458900114996	68.4330080646295	-130.745588397863
1958656	7.69350975154833	50.9923511218266	51.5694673739105	-81.4201674770656
1670375	132.625331383407	-38.8666289351236	138.203087408853	16.3335313193345
1424531	-1.09453962868884	48.0976778876462	48.110130276092	-91.3036321472928
1214875	58.4151683689034	51.8192041893057	78.0868863406673	-41.5757427528842
1036062	168.422257517271	41.6650371642099	173.499372186498	-13.895108886927
883578.1	118.468630346053	72.7504620613624	139.02318549872	-31.5536910511707
753531.2	-17.5193943482281	106.514283209747	107.945457088359	-99.3403392522543
642624.9	11.8034103771185	44.7566343559022	46.2868968002673	-75.2260926412448
548046.8	-26.5650541233074	191.354545219042	193.189710069042	-97.9036475809638
467390.6	22.8776503833324	11.273857699295	25.5046418223417	-26.2335773881528
398593.7	5.92177208363833	-0.564759679596569	5.94864170262895	5.44782423667926
339937.5	3.62588475417303	3.58630556281888	5.09986547277966	-44.6855743183598
289906.2	6.23579239360788	12.3160794442697	13.804742650761	-63.1463088549427
247234.4	11.781357557623	-6.76374562562275	13.5848680813871	29.860383042597
210843.7	3.32633057735683	1.56107825360129	3.6744306257876	-25.1411073010209
179812.5	3.98461579063558	2.26308057585825	4.58243349016757	-29.5946051101697
153343.8	3.4982698180561	-2.25053651739767	4.15966420953214	32.7543298404453
130781.2	-2.26997697734828	-9.53739560993606	9.8038110190945	103.387770412838
111531.3	4.64220137487683	-3.24402738223818	5.66336889683336	34.9463231251671
95109.37	5.18483826632382	-1.17394668119761	5.31607925620289	12.7577532861246
81109.37	3.41728154514913	-3.26889256788213	4.72900325429914	43.7286202089323
69171.88	7.20986938541404	4.89819601221407	8.71633757542699	-34.1911590216067
59000	4.54061230922769	-3.66521080693752	5.83531750652881	38.9106868646127
50312.5	1.67195349963348	-0.2680306774844	1.69330119854956	9.10758814237283
42906.25	2.37111683494579	-2.18531930450041	3.2245643903612	42.6649469805838
36593.75	2.32340832449238	-1.25888834520957	2.6425416000557	28.4500875369281
31203.13	2.88812669417938	1.03065767930218	3.06651774061982	-19.6394634197716
26609.38	2.23131851085099	1.40889186370014	2.63889343863422	-32.2690002105018
22703.13	15.3128375022052	19.8111495169123	25.0392619210391	-52.2981150380081
19359.37	1.64640596391401	2.87818819377575	3.31581360706565	-60.2292088325931
16500	3.84498603265062	-0.936993692285566	3.9575086570545	13.6955992530845
14112.02	-0.818385118474568	3.56388493913021	3.65664191048286	-102.932784627725
12011.13	2.38761193788546	3.33791728491917	4.1039471934828	-54.4238629424568
10236.38	4.96191929148343	0.920390980540772	5.04655948268285	-10.5084126556882
8750.684	0.851088264407346	2.46974373699442	2.61227589665316	-70.9857465910406
7449.463	6.96401757726958	2.92648593387362	7.55393015176072	-22.7935846228109
6363.206	7.10335264996817	-5.55168750591336	9.01547852491061	38.0097164613474
5414.761	7.60013990989073	2.93436520930313	8.1469396604788	-21.1112544855919
4620.567	11.7256402733026	-6.02757534715484	13.1841687028241	27.2054685072993
3941.215	10.6069491513658	0.366142984412987	10.6132667442543	-1.97701722815748
3361.769	2.17644183003046	4.71603854676369	5.19402720574964	-65.2267759048422
2867.244	4.21515107913541	0.622447294869297	4.26086132780997	-8.40010558652324
2442.658	1.10075456286239	-1.84130053557886	2.14523851121161	59.1284423165878
2083.003	1.42625184712961	2.6623422127159	3.02030799572653	-61.8214585452617
1777.843	7.17932213342814	2.29609115373677	7.53755271170951	-17.7353184017456
1513.548	6.77587681933329	0.935482871516954	6.84014874645865	-7.86060852662806
1292.065	1.59259613049051	4.34748508812529	4.630009614064	-69.8809120746899
1101.762	4.47064214559762	-4.02568391237071	6.01604289847687	42.0021207552867
939.101	0.920795903013024	-9.48160691688213	9.52621303673567	84.4531768613702
801.2801	19.3237034782172	-6.07134261509369	20.2550417739366	17.442273407848
684.3433	13.9501190703185	-12.8494878934837	18.9661583142409	42.6482452608557
582.9476	12.9868212346678	19.1427379032227	23.1322705373402	-55.846236398447
497.0677	21.0434730139002	-18.5480311164566	28.0509752911336	41.3934333120515
423.5089	-25.7853574992483	94.0885407978351	97.5578708809797	-105.325857450648
361.5036	13.8078081366875	-23.3434887358774	27.1214681000423	59.3954406491187
308.1262	40.1384737289159	1.13554608087288	40.1545332209036	-1.62050627225102
262.7298	34.7421425363627	-4.95058739197659	35.0930874039681	8.10977641257455
224.2111	10.4633212601953	49.1019849522423	50.2044422142531	-77.9705604799215
191.2854	38.5951912638825	266.594398736136	269.373647980231	-81.7624524638768
163.1722	343.173065423566	-30.7298328027133	344.546187696642	5.11696975788097
139.1537	56.166538217377	5.71875740344719	56.4569234156764	-5.81369961478934
118.6706	208.723140237238	-145.130608038784	254.220854101706	34.8118900376955
101.1982	-58.936082345531	-107.620805309052	122.70166884606	118.706312727676
86.24196	174.876102591715	326.519986263795	370.40107004081	-61.8275891936696
73.61024	311.646773569509	-344.853896497526	464.809553909782	47.8956677684054
62.69291	3132.32227266598	-2907.2433520606	4273.58242320654	42.8657228511535
53.57697	577.166623925458	1469.75290674481	1579.01707358037	-68.5602443569133
45.65746	198.621312467473	-183.169828828303	270.188104770161	42.6824451116471
38.96512	343.883430397861	93.1004069500463	356.263244633044	-15.1486832468937
33.18414	274.809412604573	-215.863712793276	349.452937828499	38.1497530760553
28.30617	167.366543313796	90.5372359673972	190.285445889656	-28.4112524575742
24.17237	51.6815663905069	242.070201826032	247.525689407529	-77.9483870132499
20.61345	138.708034741489	-171.403707415641	220.49750524138	51.018568501188
17.55618	150.445816410257	-8.94139639818858	150.711287715613	3.40124019191038
14.98558	36.869128778941	14.2797108968355	39.53786539781	-21.1717874766474
12.76553	85.1015188821778	-37.7466387178951	93.0971387882193	23.9196013888477
10.8809	-0.513148315691137	42.7258623815341	42.7289437903593	-90.6881035879838
9.278505	25.4790901881169	52.0844982264626	57.9825749024359	-63.9326934287597
7.923394	-0.142517930725159	-45.6541919742129	45.6544144215963	90.1788586996715
6.75822	125.093796446877	13.7499831457449	125.847208733452	-6.27262161995528
5.761429	23.285868587664	75.9539649518561	79.4432908922442	-72.9555754907004
4.919708	37.4046835270242	-16.8587231545685	41.0283669691985	24.2616400038069
4.191257	51.0660232953238	41.8730587883441	66.038562881779	-39.3510278484825
3.564097	77.9281927491603	-28.4099850541749	82.9453463186979	20.0301461515375
3.051758	55.9891843884934	42.230758986651	70.1300632616092	-37.0260224116211
2.604164	122.671868270754	-64.4162357177596	138.556265427022	27.7044173440331
2.214424	230.479817436606	173.374777977308	288.409014915089	-36.9517327039045
1.892567	55.6108161102562	-333.614185591829	338.217367526489	80.5362654865173
1.607507	295.269067383409	-348.163589429554	456.510358215385	49.6995337131276
1.376413	341.454198175774	-231.623605626296	412.602065112606	34.1507941449397
1.17375	453.69809331585	-238.675660350158	512.648057366866	27.74738344909
1.001604	338.25892184614	-332.469144998632	474.294033891039	44.5054306579928
