EC-Lab ASCII FILE
freq/Hz	Re(Z)/Ohm	-Im(Z)/Ohm	|Z|/Ohm	Phase(Z)/deg
6999984	2.22902247812107	1.06807966100539	2.47170697499166	-25.6023211373674
5969734	3.91354991110569	0.937096751865415	4.02417982066807	-13.4658947434386
5091109	5.4619782056313	-2.78743325196506	6.13212769379046	27.036766814101
4341796	3.15693823273474	-4.87986851730536	5.81200273154533	57.0999196203948
3702781	2.9921633563586	-5.11072464211465	5.92220802730309	59.6524122202349
3157797	0.983179058907822	-6.48583336393085	6.55992953365762	81.380232318745
2693047	1.57593166952907	-8.27252413208069	8.42129539577387	79.214279965812
2296687	-0.0527757325818604	-7.76824540261086	7.76842467384053	90.3892488020435
1958656	-5.53994451686671	-7.75023183139013	9.52665096926797	125.557570154512
1670375	3.30308919724069	-8.56286183550092	9.17785383729804	68.9060816820543
1424531	2.53570323312857	-8.62681202180486	8.99175603239187	73.6202065330522
1214875	8.01990609790971	9.04398044022689	12.0876993684694	-48.4344371719008
1036062	9.82453938051527	-4.72954784097932	10.9036781326031	25.7062327630923
883578.1	14.043088912386	-8.74683823463011	16.544350253303	31.9170093186411
753531.2	7.25673284156838	-7.28568882791078	10.283065361605	45.1140837237602
642624.9	2.84444504186786	-10.8615857642047	11.2278632388082	75.3248705651254
548046.8	8.39880448796148	-4.20198089916263	9.39130237527945	26.5791225048182
467390.6	0.0920872307561571	-0.112960147560398	0.145739675466925	50.8124354752338
398593.7	0.0447248029154731	-0.143606763970351	0.150410141459491	72.7013541170009
339937.5	0.039728499017658	-0.11738371100112	0.123924530431188	71.3016182234963
289906.2	0.0423722441663587	-0.115790057795579	0.123299410217556	69.9003926397243
247234.4	0.0427529232500502	-0.109207069143116	0.117277433452706	68.6204049254021
210843.7	0.0431859311881337	-0.105074270623548	0.113602935699993	67.6571482802281
179812.5	0.0411619167086851	-0.0974798184243741	0.105814074617613	67.1075671631387
153343.8	0.0397615867494242	-0.0903315979955624	0.0986953969406065	66.2421717093731
130781.2	0.0383589361573498	-0.083064621546191	0.0914939305950705	65.212681143082
111531.3	0.0365314988695102	-0.0751225323033508	0.0835340964476243	64.0667082570408
95109.37	0.034384448938119	-0.0693890444429264	0.0774411377594656	63.6401411785659
81109.37	0.033474067223667	-0.0629655685118656	0.071310419957514	62.0037737156723
69171.88	0.0312722349024245	-0.05876983279374	0.0665721106950694	61.9819440236778
59000	0.0294426625072	-0.0542322655934323	0.061709067461026	61.5024929407123
50312.5	0.0304902555234774	-0.0531472332714756	0.061272213003119	60.1573599250837
42906.25	0.0313471759038286	-0.0533414189559676	0.0618704486276092	59.558504437613
36593.75	0.20080740443315	-0.169619990437889	0.262858431158919	40.1874430969704
31203.13	0.129087856335982	-0.146869527950908	0.19553601431435	48.6868308102339
26609.38	0.0758667240801916	-0.115256612476887	0.137984950419628	56.6454151198293
22703.13	0.0433707649758748	-0.0901577722841641	0.100047224638346	64.3099288410739
19359.37	0.0230586141452235	-0.0715313491855153	0.0751560616490674	72.1329226884516
16500	0.00952093779947034	-0.0725015414060017	0.0731240163204098	82.51869945767
14112.02	0.00348665498508723	-0.0437862501037123	0.0439248501548939	85.4472013401426
12011.13	-0.000833522136365781	-0.033518132763797	0.0335284950918369	91.4245262420654
10236.38	-0.00324705039007344	-0.0252902764346018	0.0254978708596277	97.3162512493957
8750.684	-0.00399827014636716	-0.0185415139158149	0.0189677068317098	102.168859999477
7449.463	-0.00382613060188301	-0.0134717456024329	0.0140045422973882	105.855155861789
6363.206	-0.00344644202733805	-0.0102351583543199	0.0107998346832628	108.60970775766
5414.761	-0.00274775856682188	-0.00839503309156203	0.00883327559572124	108.123667660051
4620.567	0.0325101009984112	-0.0062648017592714	0.0331082226646171	10.9073803571716
3941.215	0.0291945853319534	-0.00597898855387144	0.0298005388681486	11.5740110222284
3361.769	0.0361078674698321	-0.00649061008621826	0.0366865930894418	10.1904382681244
2867.244	0.043416979849871	-0.00672443458305621	0.0439346350815152	8.80403510251252
2442.658	0.0494206794862712	-0.00759592551963913	0.050001016443515	8.73794442084418
2083.003	0.0549619746880977	-0.00806667714798229	0.0555507870495538	8.34959362730451
1777.843	0.0568547880920307	-0.00819397965960077	0.0574422164583825	8.20106577807275
1513.548	0.0608807642231137	-0.00908676706884081	0.0615551524094753	8.48902290674959
1292.065	0.0644550585184092	-0.00952903507904892	0.065155637347426	8.40969117043578
1101.762	0.0667210969654809	-0.00939333180544993	0.0673790728838293	8.01372003822087
939.101	0.0691673920324855	-0.0102494275133333	0.0699226636000562	8.42891963404037
801.2801	0.072103546344989	-0.0119833286538174	0.0730925547586714	9.43608776463314
684.3433	0.0742284064762608	-0.00977328440073679	0.0748690417728361	7.50070508761663
582.9476	0.0750853198785883	-0.00888953528138121	0.0756097156375346	6.75195811136172
497.0677	0.0775629567721239	-0.00787637177879411	0.0779618464098442	5.79840164165935
423.5089	0.0839741873856595	-0.00503465079468723	0.0841249775970627	3.43104660232868
361.5036	0.0911977647628369	-0.00391701076666397	0.0912818452436403	2.45938409334238
308.1262	0.100889704440567	-0.000946322733883613	0.100894142490144	0.537405763942956
262.7298	0.110981474569318	0.00117060164480772	0.110987647987472	-0.604317494131719
224.2111	0.121121815632763	0.0028348987897507	0.121154986993211	-1.340783120048
191.2854	0.130814855736491	0.00349567092741032	0.130861553546455	-1.53070946180915
163.1722	0.136725007651133	0.00234670498082528	0.136745145220842	-0.983310168003519
139.1537	0.145396051077044	0.00030996900232566	0.145396381487233	-0.122148356681925
118.6706	0.157012280642858	-0.000186477920955976	0.157012391379428	0.0680481346796254
101.1982	0.165667907249008	-0.00362802940198153	0.165707628338612	1.25454323159829
86.24196	0.17496815541876	-0.00790193931061402	0.175146498838863	2.58584390013688
73.61024	0.169859889970561	-0.0103439169147769	0.170174554026009	3.48482384802186
62.69291	0.181225509339012	-0.0140255980094417	0.181767441074321	4.42547444338892
53.57697	0.190767566249921	-0.0168072083649693	0.191506518390214	5.03493366077414
45.65746	0.203190694868769	-0.0208321008506347	0.204255807523567	5.85378947171464
38.96512	0.21846187605461	-0.0252964433233529	0.219921579964566	6.60505746226813
33.18414	0.222345296151912	-0.0286349398505356	0.224181601611563	7.33849500623715
28.30617	0.221568948589286	-0.0301379132338848	0.223609241296184	7.74586226899721
24.17237	0.238604356664529	-0.0350075216933236	0.241158797464248	8.34676321579656
20.61345	0.243610650103886	-0.0381265955134126	0.246576126438634	8.89499215248954
17.55618	0.25475248105673	-0.0423952356222098	0.258256040796769	9.4484235459623
14.98558	0.27701966508018	-0.049585218421741	0.281422438208233	10.1482055490453
12.76553	0.276587278747461	-0.0512827141690677	0.281301332271057	10.5040639060231
10.8809	0.272089259004638	-0.0506826126248789	0.276769384304292	10.5516709692206
9.278505	0.278313101879452	-0.0522242285925125	0.283170536479071	10.6277139277903
7.923394	0.288558943753645	-0.0566303807334582	0.294063367392533	11.1033204639505
6.75822	0.300051832216198	-0.0609599153492717	0.306181667144994	11.4841712399519
5.761429	0.305318174906577	-0.0631867955862274	0.311788003400931	11.6925216125732
4.919708	0.296869650874576	-0.0600660884670132	0.30288533241826	11.4383231571855
4.191257	0.29462199850799	-0.0601400403377177	0.300697433405516	11.5370667035984
3.564097	0.308056608578836	-0.0653119452985886	0.314903992175044	11.9701884192495
3.051758	0.328255953659843	-0.0696515098028264	0.335564157697073	11.9797167073826
2.604164	0.310714445507682	-0.0658929737261804	0.317624543500066	11.9732823913433
2.214424	0.272408214086143	-0.0542771378054972	0.277762925513754	11.2685672216441
1.892567	0.286658130756444	-0.0572930916248411	0.292327525691152	11.3025264301616
1.607507	0.281982735469491	-0.0556922752230994	0.287429804686958	11.1722702050165
1.376413	0.293143234829659	-0.0602128319046543	0.299263330951813	11.6073457067491
1.17375	0.23872666987961	-0.131768051149137	0.272677909291255	28.8970289945979
1.001604	0.323198562513403	-0.203452760542047	0.381903569743606	32.1903216460745
