EC-Lab ASCII FILE
freq/Hz	Re(Z)/Ohm	-Im(Z)/Ohm	|Z|/Ohm	Phase(Z)/deg
6999984	19.320833139857	99.8077907773309	101.660659515221	-79.0441687964376
5969734	20.9256822295225	90.5686235333395	92.9546112115732	-76.9902296924527
5091109	16.9034145848891	86.2177640239874	87.8591387274233	-78.9075756580784
4341796	14.2030744575569	92.1299401666168	93.2183093557875	-81.2360761374901
3702781	20.2813839519384	105.124717311152	107.063255717149	-79.0802651375309
3157797	20.6224809837236	109.606278282177	111.529471265644	-79.3443413853067
2693047	20.6659241098918	121.498687313652	123.243707499639	-80.3468456394471
2296687	18.4533241005629	139.14997630923	140.368233860869	-82.4458192261293
1958656	20.9432642764384	158.605999295593	159.982759480846	-82.4778475668771
1670375	22.9534542655738	182.529580464329	183.967140563759	-82.8325657378426
1424531	25.5208108906339	210.362385632692	211.904801921979	-83.0827764069763
1214875	28.8020174382499	240.210931924459	241.931494486622	-83.162704019397
1036062	30.3427810397893	277.647388550915	279.300477497571	-83.7631637886941
883578.1	32.4711475012789	320.99028406964	322.628482758665	-84.2236499686408
753531.2	35.5653401160062	372.380159440759	374.074693828241	-84.5443344465755
642624.9	38.458906697355	432.856840532119	434.562000064207	-84.9226584787004
548046.8	42.5102468657965	503.622554713872	505.413492800813	-85.1751609790145
467390.6	152.510318713721	708.226157891143	724.46096377611	-77.8474318497479
398593.7	176.917911133913	802.126961716525	821.405874091834	-77.5619269804342
339937.5	202.362282326754	909.777953995575	932.012027221144	-77.4598259013419
289906.2	225.735855816515	1034.15626983074	1058.50643221071	-77.6866025966547
247234.4	248.605556066569	1177.16148671721	1203.12671332551	-78.0748960944148
210843.7	269.67744521293	1345.93208959404	1372.68318058303	-78.6699700604377
179812.5	291.721120874615	1545.45668838596	1572.74841854673	-79.3105941711735
153343.8	312.4556902812	1778.24814475834	1805.49024442825	-80.0342971622032
130781.2	334.67817708835	2051.06595286765	2078.19176815617	-80.7325608271291
111531.3	358.160984747911	2372.36850728377	2399.25230547923	-81.4147816737914
95109.37	389.332801017868	2750.58572899615	2778.00321859167	-81.9435644229176
81109.37	408.414649414307	3185.10981162596	3211.18779238651	-82.6930505147283
69171.88	438.077141882607	3694.31276319407	3720.19601291903	-83.2373604201025
59000	460.302810213522	4277.15435316544	4301.85169873306	-83.8575299375522
50312.5	358.671389310328	4906.37503406411	4919.46756675937	-85.8189363576235
42906.25	1855.13095475911	6757.07959375892	7007.11320699891	-74.6479209301783
36593.75	1961.93823250941	7485.20510488736	7738.05512324731	-75.3126665640891
31203.13	2071.63736799253	8504.06602569293	8752.76072755378	-76.3090974656011
26609.38	2198.07274318622	9741.51179388597	9986.41956933303	-77.2847299991499
22703.13	2360.86061072571	11157.7808803571	11404.8120106093	-78.0530664024203
19359.37	2457.82569591561	12910.5510254347	13142.4211974756	-79.2213846424716
16500	2618.87152303088	14885.8341463607	15114.4482627418	-80.0220358653874
14112.02	2759.81606569055	17236.4686446165	17456.0143232438	-80.9033022500781
12011.13	2990.63037692795	20033.4767260361	20255.469873198	-81.5094915973265
10236.38	3205.09193925073	23273.8575620719	23493.5110223794	-82.1589965538868
8750.684	3492.40118380335	27177.2140691262	27400.6903304961	-82.6773514711417
7449.463	3791.18472772165	31439.4747512571	31667.2331326032	-83.1240866640052
6363.206	4069.6960586841	36477.3324877	36703.6539247563	-83.6339618058921
5414.761	14748.6953819175	49666.5330191308	51810.1198378174	-73.4609815617853
4620.567	16279.0415196127	55984.347953785	58303.1252044669	-73.7867080683172
3941.215	17606.5397072712	63460.197444385	65857.3222970995	-74.4937379875086
3361.769	19045.4158407383	72477.5222617653	74938.1017757411	-75.2768567018934
2867.244	20284.1340956144	82785.2010585757	85234.0050116013	-76.2325503041716
2442.658	21679.7467724797	95082.0977059637	97522.3908868383	-77.1555280163479
2083.003	23195.2993993716	109694.329293019	112119.881347028	-78.0604575579775
1777.843	24889.6483895695	125263.706785662	127712.532018752	-78.7618151949972
1513.548	26641.7026080948	146499.542335148	148902.304287966	-79.6931007952028
1292.065	28816.5259529902	170036.695278903	172461.212767886	-80.3813376987139
1101.762	31805.94956307	196111.138284479	198673.594085482	-80.7877939585797
939.101	34512.6737935776	228966.256535813	231552.739747138	-81.4281888861975
801.2801	38075.9019076753	266099.320923317	268809.640641725	-81.8568759085143
684.3433	123090.114907494	379464.912863694	398929.563309854	-72.0280714119426
582.9476	140971.997701106	431011.36995917	453479.773716448	-71.8884988930488
497.0677	154028.420171653	477495.938457032	501724.152760795	-72.121578124108
423.5089	174665.20289922	545794.195424329	573061.285433518	-72.2542751494603
361.5036	198662.450137824	614685.33967321	645991.359000981	-72.0894924875807
308.1262	215723.274238244	700885.206164513	733332.532531007	-72.892320950118
262.7298	241217.279535917	805709.748370098	841043.384472713	-73.3330973819121
224.2111	253512.038478215	924305.023521098	958440.467718114	-74.6624740581747
191.2854	244120.680839286	1042493.05946461	1070694.48763189	-76.8205195935349
163.1722	324685.434974469	1177320.7146222	1221271.7538546	-74.5820307837383
139.1537	312758.890382798	1359759.39592004	1395264.7556311	-77.046666035273
118.6706	473569.009518836	1650474.59835169	1717071.3458039	-73.9902799729272
101.1982	476363.332071653	1795671.24724382	1857782.88621695	-75.1425553947148
86.24196	592733.593099238	2035779.33986339	2120313.80531349	-73.7666545454876
73.61024	791835.281841193	2578588.32783183	2697428.56772874	-72.9292767279039
62.69291	858683.926684509	1117137.92024104	1409019.24003429	-52.4524526792824
53.57697	928520.447844233	2799975.93070726	2949917.8691287	-71.6535861970451
45.65746	1252598.21412738	4894660.30569689	5052395.6490164	-75.6454404515011
38.96512	1662292.35421726	3893130.08321269	4233164.03127788	-66.8784413408658
33.18414	2624109.06336528	4875891.99089753	5537171.75851846	-61.7117371274941
28.30617	1685389.54288934	5058836.64660631	5332200.87096574	-71.5741169508605
24.17237	4314699.78520125	4228637.58661335	6041358.29721552	-44.4228445214026
20.61345	4008203.75680281	7179299.3923777	8222410.66363405	-60.8253714184267
17.55618	5623873.83726121	6259129.40059585	8414550.36177421	-48.0600722781403
14.98558	5276415.84770986	8426151.79332735	9941860.90438593	-57.9453990612017
12.76553	4910608.34246619	7883258.9008644	9287617.84265246	-58.080559805073
10.8809	7045133.97501443	3930504.90420685	8067390.00717684	-29.157300802614
9.278505	7195792.89747835	4110927.03031141	8287288.84931284	-29.7391509027253
7.923394	4531875.34138702	8875988.7835386	9965995.73526774	-62.9521907539523
6.75822	5746334.23604178	-193447.691347677	5749589.47765782	1.92810783189173
5.761429	3986244.79434033	6267279.4610051	7427579.64634118	-57.54197947765
4.919708	6634747.38752276	7778963.42628459	10224096.2868956	-49.5388419699052
4.191257	7206002.05045085	1768546.29098714	7419853.20167901	-13.7893695258356
3.564097	8616292.66615795	-855406.388844222	8658649.97554253	5.66961963692118
3.051758	10740716.945121	-295831.799992563	10744790.2235966	1.57770002241901
2.604164	9932908.07927018	2643258.82389725	10278593.2948698	-14.9017040597246
2.214424	8360260.11199902	4440569.75364216	9466393.6574201	-27.9750997951867
1.892567	10591089.8803453	-3082989.40927298	11030684.8632006	16.2298947133512
1.607507	9313120.08876065	-8476991.52421258	12593394.7404681	42.3091000827619
1.376413	-1600090.25187505	11337817.1631181	11450169.7296782	-98.0330214511043
1.17375	11517704.881176	-5714360.46221806	12857349.6966531	26.3877144941988
1.001604	19636778.8172491	-29853585.4831271	35732893.0890845	56.6642998087568
