EC-Lab ASCII FILE
freq/Hz	Re(Z)/Ohm	-Im(Z)/Ohm	|Z|/Ohm	Phase(Z)/deg
6999984	58.8229459565557	54.4840183752266	80.1788452730513	-42.8070118658865
5969734	91.491578086808	-9.13318908807646	91.9463104411104	5.70069171110892
5091109	68.3972875029919	82.3175068926937	107.02504790373	-50.2769433903266
4341796	65.8864183059139	-127.9093840972	143.881307532657	62.746899975957
3702781	111.343967502274	-79.5913019218978	136.86582641686	35.5580816221842
3157797	139.776165668338	-105.625040792393	175.19710537374	37.077347970909
2693047	80.1598552179946	120.498309909674	144.725412694722	-56.3667055299659
2296687	89.166408711557	149.429901203416	174.011332436077	-59.1750237853319
1958656	93.5702794514179	173.977145661218	197.543525353379	-61.7272642837422
1670375	96.6220011527402	201.244066284407	223.23750876912	-64.3532444503857
1424531	99.7928433502611	232.874703698058	253.355953564127	-66.8036130528217
1214875	102.567841224943	269.377929836611	288.244047877147	-69.1552610271567
1036062	105.719193354879	311.254530463285	328.7186191525	-71.2396814858426
883578.1	108.15095264285	360.531296465112	376.403300049788	-73.3019857736365
753531.2	111.006117728454	418.90184385973	433.360257709708	-75.1581398467423
642624.9	116.770955845884	487.638542369857	501.424774152375	-76.5334104423949
548046.8	564.513753832447	1159.77062827423	1289.86188736376	-64.0456807059595
467390.6	664.373398730342	1260.8669706107	1425.19385717084	-62.2144502969419
398593.7	763.758710202961	1359.97937808874	1559.76641720404	-60.6816163076284
339937.5	859.96517048753	1464.25421631986	1698.11086341915	-59.574031593861
289906.2	945.063371830409	1579.06938685272	1840.27305182435	-59.0997371310517
247234.4	1025.46389463021	1712.33090356343	1995.90914685226	-59.0838662001266
210843.7	1092.35349634664	1868.17842618743	2164.09953399858	-59.6844978567622
179812.5	1150.46854760372	2057.28331402412	2357.11529484399	-60.7853216685471
153343.8	1200.1846948517	2289.400846184	2584.91770396356	-62.3348860254784
130781.2	1244.42198289556	2568.83675830223	2854.38406005892	-64.153052996767
111531.3	1285.19990175006	2906.09582148867	3177.5984187956	-66.1429354192564
95109.37	1317.88416497134	3309.00058013501	3561.7837541906	-68.2839641081013
81109.37	1370.58151818227	3805.90800458725	4045.17359792681	-70.1950648337601
69171.88	1390.08423589525	4411.04931446976	4624.89894349797	-72.5084392273803
59000	6171.73466634523	8817.80429498436	10763.0841944311	-55.0111561416218
50312.5	6707.78526363988	9336.4631185168	11496.257073784	-54.3046304252901
42906.25	7210.03971195513	10035.7742062468	12357.2422719124	-54.3052549492867
36593.75	7635.92010944838	10814.4756083087	13238.5859743623	-54.774725107461
31203.13	7996.84271250108	11823.894128683	14274.241336575	-55.928369898379
26609.38	8188.71793974043	13039.8341326952	15397.8042494646	-57.8721177592044
22703.13	8572.31118247676	14538.899572659	16877.9181119319	-59.4758839235551
19359.37	8806.62446331502	16319.0205945953	18543.6530275101	-61.6463053472902
16500	9072.03755895114	18527.9271840152	20629.734637343	-63.9117231734579
14112.02	9270.16129045001	21104.9818601676	23051.1637378454	-66.2869770089523
12011.13	9535.97012289596	24260.4243728834	26067.2767457048	-68.5418524116896
10236.38	9650.7589189809	28067.5167642438	29680.3410530168	-71.0249369042276
8750.684	10157.174086011	32023.7608800378	33595.9736622616	-72.4022128521631
7449.463	9907.76507476934	37450.4631200641	38738.8822332821	-75.1815165247837
6363.206	60150.939410597	84127.094172136	103419.06732235	-54.4352017772224
5414.761	65915.7827160756	88994.432081209	110747.006065761	-53.4736468167
4620.567	71745.9929403273	93971.8232407345	118229.400176865	-52.6388415796165
3941.215	76666.4030574484	100377.601191813	126306.770122546	-52.6281329984255
3361.769	80831.9448527286	108283.704754811	135126.474179198	-53.2592861168077
2867.244	84062.6850173743	117988.514877296	144871.752440841	-54.5314586868044
2442.658	87163.4214308911	130388.130766786	156839.174571902	-56.2375894908332
2083.003	90531.7921352884	145061.218343174	170993.457343938	-58.0319729840459
1777.843	91482.0124912655	164491.348572766	188218.92137811	-60.9193364968282
1513.548	0.00011303275537698	0.00110836331382475	0.0011141120406946	-84.1770112041171
1292.065	0.000344448357522008	0.000517749412773387	0.000621859409695468	-56.3649694678466
1101.762	4.06622065016414E-05	0.00109579941927654	0.00109655359300145	-87.8748808138914
939.101	0.000929664659669134	-0.000441578707992926	0.00102920752756207	25.4071144165663
801.2801	0.00298779891440588	0.0110302141917574	0.0114277105086265	-74.8437579045541
684.3433	0.00077241063917482	0.000440957904737374	0.000889416701698832	-29.721412129388
582.9476	0.00116755554601423	-0.000667328689836159	0.00134480985024167	29.7505814107381
497.0677	0.000158682963616414	-0.000912856879429942	0.000926546256408529	80.1387473682556
423.5089	0.00269430724352887	-0.000575081930353895	0.00275499741363794	12.0486034230912
361.5036	0.000667325913926697	-0.000805464095058403	0.00104599057540035	50.3582976676572
308.1262	0.00314475559717657	-0.00386827639552434	0.0049852833458234	50.8902546029685
262.7298	0.00345433099188745	0.000856207589501075	0.00355886134006839	-13.9210524158905
224.2111	0.00299170947989933	-0.00450894237945387	0.00541118166331113	56.4354948428493
191.2854	0.00421879000028321	0.00423478787958341	0.0059775929479646	-45.1084286303223
163.1722	0.00508499532886615	-0.00415340954069642	0.00656566739237822	39.2418507406203
139.1537	0.00778366601624884	-0.00444096387836787	0.00896145171395099	29.7068819197035
118.6706	0.0110299157612632	0.000536657780335993	0.0110429635186284	-2.78551510807761
101.1982	0.0121604359660867	-0.000763186835456757	0.0121843611663111	3.59116309592476
86.24196	0.0195604283040835	-0.00178263450533753	0.0196414903003517	5.20725129061753
73.61024	0.0130503743331203	-0.00432042563491056	0.0137469395830984	18.3175180061119
62.69291	0.0142121294593327	-0.0113597348784052	0.0181941803958433	38.635294700383
53.57697	0.00508159016022039	0.0241814405218651	0.0247096059108386	-78.1323064654869
45.65746	0.0084146560498953	-0.0183681210224269	0.0202038191026489	65.3869176085813
38.96512	0.027198447402719	0.0102837949901082	0.0290776887065848	-20.7117195558913
33.18414	0.00216681537473243	-0.0404025516872673	0.0404606138325963	86.9301307055002
28.30617	0.0352682894711117	-0.0128575743082477	0.0375389059418391	20.0300716670241
24.17237	0.0630343807887201	0.0132764768545208	0.0644173734258545	-11.8939506550294
20.61345	0.00814266067737185	-0.105392277370095	0.105706362401521	85.5820756051164
17.55618	0.0693895095396847	0.00300716166494643	0.0694546402728941	-2.48149797240324
14.98558	0.0774584505752351	-0.0281465920793494	0.0824138472054147	19.9699626647369
12.76553	0.0931272795901858	0.00708651065137997	0.093396514052082	-4.35153022922272
10.8809	0.118872914226768	0.0752614824021317	0.140694919844786	-32.3389468981314
9.278505	0.156614372771905	0.00632298803846908	0.156741959718742	-2.31194543687916
7.923394	0.169715796794078	-0.0457805619082221	0.175782000017298	15.0961372875022
6.75822	0.187222662719589	-0.166350800877063	0.250449424811185	41.6216825088978
5.761429	0.369933475850285	-0.239458877777568	0.440671454375213	32.9150846090252
4.919708	0.446427897054913	0.0378364627316107	0.448028420059389	-4.84445785248746
4.191257	0.297955548513687	0.0828187255671085	0.309251435234587	-15.5336249415523
3.564097	0.635188113490121	0.284876204007667	0.696145380742382	-24.1558089694683
3.051758	-0.222501338484601	1.06523571566596	1.08822514929486	-101.798041714468
2.604164	0.705733226407377	0.176067381208424	0.727364495683532	-14.0082795106212
2.214424	0.735724389839877	-0.13951410973672	0.748835472330798	10.7374066976681
1.892567	0.712471705610651	0.052573704160561	0.714408794504177	-4.22024038821526
1.607507	0.264008009058232	-0.676507403375557	0.726197284261536	68.6817114094811
1.376413	0.765733837163754	-0.045990627726454	0.767113712050697	3.4371044850966
1.17375	0.622211453864856	-0.391981878698221	0.735388935562947	32.2101803632537
1.001604	0.526414910723856	0.145514049717121	0.546156568117131	-15.4521102360391
