EC-Lab ASCII FILE
freq/Hz	Re(Z)/Ohm	-Im(Z)/Ohm	|Z|/Ohm	Phase(Z)/deg
6999984	27.6494952083031	22.9362638998782	35.9244594525628	-39.6769434310868
5969734	4.2436243582902	5.31471324478875	6.80106789913223	-51.3937813724854
5091109	11.5442304561525	7.85601971545695	13.963749589362	-34.2358669183608
4341796	11.7734781785249	9.52105304040449	15.1415071712956	-38.9620009647446
3702781	24.0470594697526	15.0079615241306	28.346075182494	-31.9686156272486
3157797	23.4559813072124	4.96910321429142	23.976552000623	-11.9611528748203
2693047	-0.0178536593890172	0.688520133739526	0.688751571844503	-91.4853743599083
2296687	18.4175867603482	1.69759098324274	18.4956567123565	-5.26620291815854
1958656	6.05732932455977	-20.3830166498777	21.2640214046018	73.4493505185442
1670375	-4.17036076415966	-23.7927971065092	24.1555191013308	99.9417157540237
1424531	64.6639846918988	45.1200259815048	78.8495254317094	-34.9058436569411
1214875	23.5501936457058	8.7100772705492	25.1093023959085	-20.2969955150417
1036062	16.1360315860395	-16.5348298547046	23.1035086874201	45.6993486523305
883578.1	12.0137512997933	14.4170013485237	18.7664633902241	-50.1954057665015
753531.2	15.8236978391824	-2.97739094045666	16.1013747896899	10.6561956597863
642624.9	10.5538952375128	15.9580799867546	19.1323030905339	-56.5212952726701
548046.8	9.23443927303636	4.69270187558967	10.3583936776201	-26.9384930930802
467390.6	7.44338735322548	-1.31254887553546	7.55822729486395	10.0005887027078
398593.7	5.56112236674856	-2.40556418349448	6.05911057985102	23.3917697496613
339937.5	4.19367883367235	3.37036669352327	5.38017786033161	-38.7880681668767
289906.2	5.51388394497168	6.70523905547334	8.68119501852489	-50.5686934996072
247234.4	6.92291715116994	0.747270170166871	6.96313109090904	-6.16074015130008
210843.7	6.94072817291399	-2.2954536884633	7.3104593019975	18.3002032215431
179812.5	4.3329258355318	2.42619701947877	4.9659519000436	-29.2463957397569
153343.8	3.13425644566917	-2.87550993975586	4.25348338198864	42.5346907554387
130781.2	0.620337231784221	9.21203921557772	9.23290229507924	-86.147527653131
111531.3	3.69384361825749	-2.16495672464546	4.28153223691346	30.3745095313238
95109.37	2.74784518224978	-0.715563549563202	2.83948663301605	14.5961628563152
81109.37	4.07909617011739	3.63213440045984	5.46181525393071	-41.6827082436571
69171.88	5.04876375727999	-0.226486055324404	5.05384125295604	2.56854974204865
59000	5.38780063260241	10.1123281598256	11.4580790915699	-61.9515199647564
50312.5	3.53555154847211	2.92157514623581	4.58647207415529	-39.5683564697536
42906.25	5.19787094088216	-2.17733150806285	5.63547999855118	22.7282788933219
36593.75	2.76074083432416	-0.00526833365070764	2.76074586111151	0.109337650636374
31203.13	12.3245143780107	-0.284843854280833	12.3278055904168	1.32398285157917
26609.38	2.6016540053148	5.82097371777023	6.37591864646518	-65.917992188888
22703.13	2.29028421590843	13.8884902405215	14.0760634749456	-80.6359028470906
19359.37	8.08832664196928	-0.672582066842586	8.11624263460798	4.75347501940966
16500	7.12873622970902	4.4826633993472	8.42099467905146	-32.1623383873603
14112.02	22.2444744142298	-4.28281958479551	22.6530171403553	10.898035415533
12011.13	4.66183828909526	4.80744796225556	6.69658809719321	-45.880970543809
10236.38	32.6638724416398	8.46545898314863	33.7430371881235	-14.5296023492548
8750.684	51.2769142242328	10.9874847212611	52.4408881776355	-12.0943025368308
7449.463	108.420898224933	-74.7582459198966	131.696190168588	34.5869926439508
6363.206	154.690669694049	172.578574858659	231.75971994857	-48.1285636529702
5414.761	566.211837768218	105.319560665965	575.923653870663	-10.5370147088211
4620.567	416.739508128246	126.28785486654	435.454291426511	-16.8587961075986
3941.215	210.824826036928	497.658967448824	540.473454626341	-67.0408748757854
3361.769	377.198885856963	85.2943061351009	386.722275219313	-12.7417505749066
2867.244	46.2260040864211	3.09506276311145	46.3295032058991	-3.83052251737641
2442.658	-6.75035275194822	6.52301729799489	9.38706647178315	-135.981219433989
2083.003	-1.11642262321274	-4.76046575029467	4.88962510151339	103.198465157327
1777.843	1.19705461431869	3.43782560394034	3.64027260418357	-70.8018271388036
1513.548	2.87018990602049	-0.125380298921263	2.8729271337748	2.50129710197179
1292.065	1.34528296032281	0.841508022017933	1.58679614142946	-32.0270057561504
1101.762	1.42651896803339	-0.860384569405766	1.66589854836079	31.0956800488991
939.101	0.246156206081965	1.07138739083711	1.09930151416134	-77.0605889096947
801.2801	-0.0857479488240444	0.839907224736832	0.844272975341896	-95.8292538836927
684.3433	-0.598736429679666	0.49399741225566	0.776220816224895	-140.475099308538
582.9476	0.684225415021772	0.489004268023273	0.841005108609153	-35.5527473851115
497.0677	-0.10685253468435	-0.682237241441725	0.690554210600793	98.9013962854046
423.5089	-0.0608424121593615	-0.79118123057714	0.793517194983781	94.3974323536607
361.5036	-0.0525189497897345	-0.562496675830581	0.564943139092308	95.3341037571406
308.1262	0.492087077632559	0.361691438206306	0.610713016436278	-36.3164485598193
262.7298	0.577503779545687	-0.379369712387955	0.690964538935879	33.3014300502819
224.2111	-0.0585603038823422	0.612327135509951	0.615120988158114	-95.462904669486
191.2854	0.622577704392285	0.358473118541241	0.718405160562652	-29.9328450149472
163.1722	-0.197225851877227	0.670857265169374	0.699247815069329	-106.382849991105
139.1537	0.526256422747887	0.344159127766822	0.628801501038779	-33.1837273304282
118.6706	-0.123828537917854	0.605793317860156	0.618319537752843	-101.552529299254
101.1982	-0.597498741706826	0.14653754883005	0.615205656312066	-166.220098396049
86.24196	0.372593619458087	0.667879861064925	0.76478069672095	-60.843935250989
73.61024	0.154975817091246	-0.507014842781969	0.530171250337402	73.0035320581529
62.69291	-0.0114400520990866	0.518065240909218	0.518191536625557	-91.265014791901
53.57697	0.850004486604839	-0.101794876515731	0.856078164733343	6.82910687847609
45.65746	0.851797516064402	0.32855480405456	0.912966191948429	-21.0925932502045
38.96512	0.720727756481847	-0.0506543684905867	0.722505615210385	4.02026551264311
33.18414	-0.763227760676431	0.138758555086201	0.775738713277074	-169.695889564431
28.30617	0.352548077802313	0.807801287779829	0.881381340681124	-66.4221377528236
24.17237	1.06246389633168	-0.637136077182628	1.23885911703307	30.9501831464035
20.61345	1788.28691472935	3469.24036518433	3903.02431465864	-62.7302841998982
17.55618	5652.63074863918	-729.735322214044	5699.53928146372	7.35600459645634
14.98558	4742.88266550656	-8599.78119212625	9820.95578501456	61.1227365140996
12.76553	6709.63543275049	-872.208228990725	6766.08859202567	7.40653947398688
10.8809	49.1065167225075	1304.52931364309	1305.45324701374	-87.8442275718519
9.278505	2288.65160156345	1140.04690703337	2556.87956376035	-26.4792903385946
7.923394	1948.96798419464	1140.41110015095	2258.09957281853	-30.3334341869909
6.75822	11820.8421760488	-7127.56545350575	13803.4234538053	31.0885467243497
5.761429	13211.3079248804	178.525757158845	13212.5140882414	-0.774196615599032
4.919708	1834.07994810775	12005.6235985133	12144.9103432356	-81.3141702849664
4.191257	5791.27222119939	4028.69309672879	7054.72905274653	-34.8243690584735
3.564097	6762.14627766168	2963.65105735138	7383.0786173678	-23.6664342574911
3.051758	6858.60583210186	-5734.40875101103	8940.01776753343	39.8986437203347
2.604164	3745.31184137987	-1418.94337129129	4005.09189409079	20.7496207140392
2.214424	4715.59965548206	-722.061852037595	4770.56112307037	8.70562387162085
1.892567	4539.60061453076	2167.13733472988	5030.35366222179	-25.5191104767805
1.607507	-3167.55222088718	-5810.69014462515	6617.96849712139	118.595903760554
1.376413	4774.92655025616	-714.473383550343	4828.08406887691	8.51004472825294
1.17375	3644.38709608699	1541.08334424112	3956.8289298405	-22.9217953886273
1.001604	1097.57708359016	683.228877928331	1292.85620006925	-31.9017801004466
