EC-Lab ASCII FILE
freq/Hz	Re(Z)/Ohm	-Im(Z)/Ohm	|Z|/Ohm	Phase(Z)/deg
6999984	2.79860712187366	0.932365149407657	2.94983162136959	-18.4256637899429
5969734	4.18779302491318	1.1456132805451	4.34166329971277	-15.2995258456178
5091109	6.44161599926787	-2.76373624215594	7.00946893125506	23.2214580450587
4341796	2.52414103960782	-4.6134950704295	5.2588615453071	61.3159951783973
3702781	0.977758655633535	-6.70050950469557	6.7714724847098	81.697822824586
3157797	1.10345405425779	-5.98520660612043	6.08607500510843	79.5540439383245
2693047	1.28156490672421	-7.09946840719201	7.21421238077065	79.7674134212313
2296687	-2.63852168503123	-9.55110853666616	9.90885820675406	105.442970023972
1958656	-1.78908139790112	-10.08013269186	10.2376700148921	100.064386017961
1670375	-1.21098853284125	-7.449707022273	7.54749150011954	99.2329669614468
1424531	3.42435549383378	-9.57448818671961	10.1684332414479	70.3201988162167
1214875	-3.63050549352822	-13.0013375031451	13.498716494883	105.601908516342
1036062	5.1477425252036	-9.32081937300279	10.6478602024038	61.0888174126279
883578.1	7.37367580174092	-1.80614590597107	7.59165712231761	13.7633343236248
753531.2	6.28769956342722	-5.22593360101755	8.17591265866797	39.7311910751298
642624.9	4.3113707516414	-3.38801996583654	5.48330165566476	38.1614528742319
548046.8	6.43765253211637	5.60866825962617	8.53818070614592	-41.0633179488089
467390.6	0.062206210585397	-0.116521283722407	0.132086419421955	61.9039644677605
398593.7	0.0309517839475065	-0.109282294415833	0.113580952638733	74.1864034262005
339937.5	0.0367593337857331	-0.107216830189562	0.113343271949721	71.0757009648762
289906.2	0.0396180394155323	-0.105790740542342	0.112965790536905	69.4693564904474
247234.4	0.0425567286117011	-0.102608304514372	0.111083478994151	67.4738017857863
210843.7	0.0421544229136273	-0.0976769026935026	0.106385020989691	66.6564201952526
179812.5	0.038486313329258	-0.0907632948672965	0.0985858611000869	67.021623493869
153343.8	0.0376796860795156	-0.0844278143710098	0.0924543919049632	65.9490465013841
130781.2	0.0365463344535473	-0.0773688232647013	0.0855661695727647	64.7155829600265
111531.3	0.0346894029829787	-0.0700324393441492	0.0781530373037889	63.6492512075085
95109.37	0.0329659279544299	-0.0653461666766156	0.0731906681567035	63.2299033972523
81109.37	0.0316635693297097	-0.0594091049406891	0.0673203043111894	61.9434985556245
69171.88	0.0297353891904129	-0.0549167449214978	0.0624503181983742	61.5660912559719
59000	0.0281172247320316	-0.051540446843341	0.0587111232003173	61.3858960294032
50312.5	0.0258704108192152	-0.0481618665193953	0.0546703168326928	61.757287272207
42906.25	0.0301633917840887	-0.0506220110970857	0.0589272280990197	59.2111774222047
36593.75	0.0280824606285118	-0.0489092046632914	0.0563980043596193	60.1366188529
31203.13	0.0245188422763168	-0.0465560428773447	0.0526178558568102	62.2263678190806
26609.38	0.0566921340262778	-0.0949399908524459	0.110578478572984	59.1570329105648
22703.13	0.0354410480841324	-0.0830199083662222	0.0902683392693015	66.8824520454317
19359.37	0.0190659870615565	-0.0675535074418613	0.0701925083632794	74.239058247573
16500	0.00625405750821074	-0.0543805693724584	0.0547390131495697	83.4394999302247
14112.02	0.00202768208067814	-0.0428226716573531	0.0428706508289036	87.2890314683702
12011.13	-0.00187631746859681	-0.0327884133333932	0.0328420556019929	93.275179920338
10236.38	-0.00383549632718477	-0.0246463930704764	0.0249430496022494	98.8454756045999
8750.684	-0.00425994023298352	-0.0180751515446246	0.0185703579435006	103.261433219012
7449.463	-0.00426389384980931	-0.0133604807518235	0.0140243800819248	107.700079962111
6363.206	-0.00365755299201997	-0.010055557073179	0.0107000898099687	109.988072325407
5414.761	-0.00290170494302761	-0.00823529543060411	0.00873155097366555	109.40990061434
4620.567	0.0321380508311492	-0.00611230857762717	0.0327141349782271	10.7684266326965
3941.215	0.0284422441738221	-0.00583403297757685	0.0290344139673384	11.5916466631625
3361.769	0.0344801506317122	-0.00586462849351165	0.0349753435287271	9.65289499431064
2867.244	0.0417477195983423	-0.00633341848842509	0.0422253985346656	8.62638953813221
2442.658	0.0489819681713521	-0.00699093380393406	0.0494783423468323	8.12266223338704
2083.003	0.0538699203090195	-0.00762704445954136	0.0544071697599492	8.0585253378001
1777.843	0.0583829110161996	-0.00857219757806154	0.059008871113103	8.35289386420446
1513.548	0.0621972069497195	-0.00911347152226912	0.0628613387984494	8.3359686909363
1292.065	0.0651452643466972	-0.00948934724993511	0.0658327667505392	8.28766834880677
1101.762	0.0676169670365425	-0.0100579802973868	0.0683609332797871	8.46067295504652
939.101	0.0708648677436819	-0.0101431890404685	0.0715871061312037	8.1456607592836
801.2801	0.0733140825174042	-0.00790557118822123	0.0737390856410681	6.15451210006701
684.3433	0.0747802413924451	-0.00975349299427856	0.0754136269403734	7.43106779719643
582.9476	0.0787325777615784	-0.00808838183901675	0.0791469564908009	5.86555229524868
497.0677	0.0837209425261912	-0.00615927350065935	0.0839472028570919	4.20761812798853
423.5089	0.0904525744992302	-0.00358462622009165	0.0905235758168919	2.26943827101619
361.5036	0.0974574746878314	-0.000203800346957707	0.097457687778393	0.119815157948593
308.1262	0.104050550273655	-0.000388669007623999	0.10405127618558	0.214020878624003
262.7298	0.111304573758786	0.00179650717517282	0.111319071042007	-0.924700023308406
224.2111	0.118373167817265	0.00242201735614678	0.118397943509032	-1.17215763023643
191.2854	0.125799006885907	0.00297273584447267	0.125834126102109	-1.35369529691907
163.1722	0.140574774001661	0.00343239606324075	0.140616671943098	-1.39870571538896
139.1537	0.145635271008771	0.00126295975751641	0.145640747145664	-0.4968607493452
118.6706	0.157210339483604	7.27021782134677E-05	0.157210356294223	-0.0264965249090721
101.1982	0.172059093250099	-0.00334622957500558	0.172091629146844	1.11415596671975
86.24196	0.186486794162468	-0.00734455367193176	0.186631366242748	2.25535840615865
73.61024	0.203477479480418	-0.011415427872299	0.20379744024205	3.21102336054711
62.69291	0.211219666054109	-0.0149598023565408	0.21174877334841	4.05125450795056
53.57697	0.216821474883576	-0.0196423814624497	0.217709382251215	5.17643303673303
45.65746	0.222938167645937	-0.0227535564679178	0.22409629833013	5.8275537342756
38.96512	0.224245455578548	-0.0248891653259201	0.225622460979069	6.33337806455095
33.18414	0.23383464290561	-0.0300398005072832	0.235756293314328	7.32046402442438
28.30617	0.24601778885774	-0.0344440603264537	0.248417281456472	7.96996898098468
24.17237	0.247245060374888	-0.0371961947477633	0.25002735207072	8.55556622507609
20.61345	0.24690485978461	-0.038265550486424	0.249852480754718	8.80966727763866
17.55618	0.258668561504273	-0.0432632499067609	0.262261574583821	9.49503939217415
14.98558	0.270134790886822	-0.0477645267447695	0.274325090472269	10.0272484289153
12.76553	0.274431179799216	-0.0495790906996837	0.278873732503793	10.2406694780235
10.8809	0.283429785661288	-0.0520858598509788	0.288175953536064	10.4130552898446
9.278505	0.287566116747151	-0.0553840245547399	0.29285092056696	10.9014445144141
7.923394	0.28221245193238	-0.0546553012776567	0.287456205331242	10.9606253250731
6.75822	0.298131287949233	-0.058707618402729	0.303856626244663	11.1400757065081
5.761429	0.303729174761757	-0.0618095613850631	0.309954566799832	11.50274653167
4.919708	0.31050575932821	-0.0640946161039725	0.317051961655347	11.6631861734626
4.191257	0.291897886290712	-0.0593621379614122	0.297872857851022	11.4952579732877
3.564097	0.287567904302186	-0.0571849265585007	0.293198593806744	11.2469552536118
3.051758	0.275590774057863	-0.0543774202121421	0.280904216014534	11.1617793477877
2.604164	0.295532876096807	-0.0598109677534648	0.301524514289728	11.4411822165832
2.214424	0.288262609229646	-0.0588417428242583	0.294206870379466	11.5370323261306
1.892567	0.288626588369756	-0.0571547096281021	0.294231147818577	11.2009753905526
1.607507	0.292511361250718	-0.0592791225256426	0.29845755280803	11.4561707925038
1.376413	0.286185888505417	-0.0585598946753387	0.292115771645458	11.5643337650686
1.17375	0.239860240261669	-0.128602590991101	0.272160910617248	28.1982668563902
1.001604	0.320866787342112	-0.201813006419797	0.379056703910437	32.1683315258973
