EC-Lab ASCII FILE
freq/Hz	Re(Z)/Ohm	-Im(Z)/Ohm	|Z|/Ohm	Phase(Z)/deg
6999984	20.8234372335209	96.3354575770387	98.5603161764196	-77.8028557332867
5969734	23.5860970160588	87.4659120281077	90.5902298228656	-74.9085594311833
5091109	21.5605050180392	87.88073864501	90.4869029275809	-76.2154188660972
4341796	21.584031233063	90.8742598570925	93.4023635078054	-76.6389492682579
3702781	21.9545826448403	99.0728386836678	101.476258622149	-77.5051468629367
3157797	22.3868062002129	107.53533259953	109.84087057711	-78.240079826751
2693047	21.9455411372002	120.484258251267	122.46658018481	-79.6770579769391
2296687	21.7732645154455	137.371674141997	139.08649073233	-80.9936003985907
1958656	23.3714232151686	157.023755803582	158.753530070249	-81.5342433740762
1670375	24.4076664552792	180.459150936454	182.102277137047	-82.2973085656314
1424531	26.2906330506785	208.212892913598	209.866162498043	-82.80345948185
1214875	29.0360566999355	240.127059084319	241.87620199839	-83.1052936483249
1036062	31.2917997268202	277.593688755384	279.351808240012	-83.5684727299086
883578.1	33.5364206860971	321.553384204981	323.29749520544	-84.0458611648117
753531.2	36.8239259900017	373.494566796475	375.305466189614	-84.3692385443835
642624.9	40.0409883307439	433.898363669376	435.741977254275	-84.7275663494583
548046.8	44.0524454729826	504.99986746952	506.917630484858	-85.0145609090393
467390.6	157.269016654225	711.714397647692	728.883342804871	-77.5394670348651
398593.7	182.665739674821	805.649953019409	826.098431938426	-77.2252569800153
339937.5	208.181269935309	914.014949744775	937.423473948045	-77.1688779329744
289906.2	233.299786085653	1037.35349880931	1063.26434703677	-77.3251235237066
247234.4	258.836403631344	1181.69749922463	1209.7128847452	-77.6451777480667
210843.7	281.614576906371	1350.30985041573	1379.36342638766	-78.2195106419058
179812.5	305.308425085805	1548.90651735603	1578.70980041817	-78.8492485545341
153343.8	328.830171836111	1781.7475214229	1811.83705448542	-79.5434442191146
130781.2	355.525518560344	2055.08665042458	2085.61250837756	-80.1850996538816
111531.3	406.624936459625	2366.37910682719	2401.06099801297	-80.2498438847314
95109.37	419.802428577225	2750.85929514099	2782.70748385505	-81.32316572235
81109.37	457.312490274717	3190.1516552229	3222.76314628963	-81.8421508931795
69171.88	497.563816180435	3700.90888636905	3734.20625252241	-82.3428587103443
59000	537.384010745207	4277.68383904286	4311.30613640612	-82.8397277102818
50312.5	1425.13521266531	5680.50682264945	5856.54916623651	-75.9162203054799
42906.25	1959.96118352377	6639.99735470024	6923.22271137843	-73.5547174570687
36593.75	2108.47807846646	7401.2524886372	7695.72726959135	-74.0987408835454
31203.13	2276.17485780213	8412.50754197317	8715.00172845915	-74.8599726101562
26609.38	2462.92993290751	9613.39219297219	9923.87692942181	-75.6300278868121
22703.13	2655.28027328946	11004.7617255876	11320.5695071705	-76.4346898142938
19359.37	2917.09597516694	12672.8186592941	13004.2216875785	-77.0371549358739
16500	3205.10775773565	14629.9406736569	14976.911559244	-77.6429432126657
14112.02	3531.00158785036	16854.1657025116	17220.0718274088	-78.1674860741079
12011.13	3981.99654600194	19479.644737661	19882.4760932298	-78.4468602950137
10236.38	4530.78183602348	22526.5795160433	22977.7015547305	-78.6278003667161
8750.684	5095.91297288986	25843.8599170134	26341.4772637656	-78.8454670330863
7449.463	5900.54464851033	30057.0656327544	30630.7626676315	-78.8934236005387
6363.206	6799.94637828653	34598.667436176	35260.559540465	-78.8809331206049
5414.761	18168.9482692172	47021.5374335922	50409.6782753888	-68.8736522708499
4620.567	20442.1751660658	52478.570613347	56319.4717583551	-68.7174066801177
3941.215	22898.9236197481	58818.5056248465	63118.7555872512	-68.7282928782252
3361.769	25592.508463046	66148.0353693573	70926.2932392271	-68.8486713109822
2867.244	28518.28727862	74686.1550278745	79945.6969583329	-69.1010592197373
2442.658	31513.1523014976	84452.0724819314	90140.0649792909	-69.5370228060523
2083.003	35224.3463822446	95902.7168443903	102166.950019033	-69.8320960705447
1777.843	39505.7510074155	108893.232555461	115837.992295437	-70.0595603152117
1513.548	45077.194973373	123726.727605744	131682.408205096	-69.9818672381919
1292.065	50862.6913231916	140560.735352091	149480.211704958	-70.107058516428
1101.762	56375.0311097612	159805.774984575	169458.047466171	-70.5685760204059
939.101	66813.3060715262	181658.373715276	193555.631819604	-69.8066567444409
801.2801	77181.9843055572	206131.018774573	220106.918570014	-69.4725077583206
684.3433	88968.9645898237	234422.978978809	250738.129795778	-69.2170831732513
582.9476	102178.748166418	263633.850663178	282742.469028534	-68.8147522095104
497.0677	212178.655279862	369490.972428801	426079.05424082	-60.1335821765858
423.5089	244417.591199296	392120.411417578	462058.844670197	-58.0637721416757
361.5036	261057.628992911	401803.838769093	479163.239934972	-56.9876485404389
308.1262	303201.333096461	506117.824782078	589988.390524435	-59.0753291289791
262.7298	300100.859673485	465646.940899151	553974.367227855	-57.1989668344391
224.2111	308709.609891685	561178.406956733	640486.399288832	-61.1843867728557
191.2854	564849.469279973	569231.166537655	801922.093412874	-45.2213700708985
163.1722	361029.959390118	758068.943640971	839649.423801486	-64.5338980431905
139.1537	581239.906298558	842446.512776955	1023501.81023973	-55.3965447433606
118.6706	471451.143791271	866160.787870386	986154.496732812	-61.4405562030587
101.1982	608491.14263808	800238.72742587	1005307.66014249	-52.7511126595723
86.24196	642039.144891722	993091.062885673	1182558.29571175	-57.1170968950928
73.61024	866511.167839397	993013.101096922	1317921.3265368	-48.8917892727081
62.69291	910237.516682071	165211.792553119	925109.330389742	-10.2874228341062
53.57697	868306.469335073	1026158.11554576	1344230.85918661	-49.763028895984
45.65746	1113835.34798222	1141831.95493148	1595120.49567339	-45.7111000167086
38.96512	1021274.01419946	1568739.41021551	1871882.46138543	-56.9352400909183
33.18414	1276386.60597627	1472046.26069029	1948353.91074822	-49.0719902288547
28.30617	1462345.39893757	1970663.07693277	2453969.64703723	-53.422458767283
24.17237	1237700.29731866	1929844.44266812	2292640.74788871	-57.3260316846652
20.61345	1596220.75824212	1442353.2089261	2151349.22510095	-42.1011278622853
17.55618	1811118.37184241	1626563.16602086	2434308.42127305	-41.9269716108773
14.98558	1432490.87137561	2118533.7482529	2557384.47228041	-55.9345864904562
12.76553	1999006.35222033	1877744.08495127	2742617.22535003	-43.2084089084213
10.8809	1198199.20523145	3073465.45459854	3298768.13917375	-68.7015357491926
9.278505	1717041.02426751	2502544.64470004	3034956.27278787	-55.5452788573986
7.923394	3238476.26644367	1683045.09509936	3649708.11441915	-27.4610248726615
6.75822	2511112.58931059	598382.343791062	2581423.6121867	-13.4032589972749
5.761429	2542467.99147926	1395566.34162356	2900301.51907852	-28.7624813155673
4.919708	3130084.1120532	-720165.905367338	3211863.24113924	12.9570509255829
4.191257	3234514.17455339	-2775772.07560164	4262275.51444961	40.6352955575344
3.564097	3924741.05934134	1114990.21735653	4080048.47614345	-15.8594603100653
3.051758	3205568.00442107	3063538.64542706	4434065.32010897	-43.7021610179532
2.604164	3078781.7638742	2774231.64773953	4144304.33063064	-42.0214122442487
2.214424	1971600.35926399	3708200.77883247	4199757.25403072	-62.0010235182557
1.892567	4753816.42534853	-4285292.23434364	6400195.32042885	42.0328427522616
1.607507	2923004.32192374	3198499.43883285	4332938.14013066	-47.576828214571
1.376413	3076651.70804671	3569849.94120854	4712707.74983697	-49.2438088124585
1.17375	5317304.2811002	2940570.94887398	6076239.15947753	-28.9434328464255
1.001604	9774915.89226778	14036524.3699357	17104765.3327576	-55.1469757869575
