EC-Lab ASCII FILE
freq/Hz	Re(Z)/Ohm	-Im(Z)/Ohm	|Z|/Ohm	Phase(Z)/deg
6999984	1.95662144327377	2.96929165866013	3.55598937378438	-56.6170250610806
5969734	3.45294486192358	3.33128939583982	4.79794927633872	-43.9726773113463
5091109	6.11861407578842	6.07249169151321	8.62047525093212	-44.7832349745399
4341796	10.6680623199442	5.50202786311787	12.0033272165987	-27.2823136067823
3702781	19.1444225389118	5.81926100249239	20.0093156545525	-16.9075089793406
3157797	25.727096729892	-6.27838526727139	26.4821001378952	13.7142834067837
2693047	0.679416303889119	-14.83464090649	14.850191154948	87.3777253350564
2296687	-4.02830254287163	-16.7374789838664	17.2154124002963	103.532327664549
1958656	-4.06937366016892	-21.239829817507	21.6261455803557	100.845957746299
1670375	-12.6956844914374	-19.2094395750792	23.0257024538827	123.461060286349
1424531	8.340201322211	-12.4599819244993	14.9936689190424	56.2032693189048
1214875	4.10899948472231	-8.25319529227468	9.2194961520613	63.5327688877584
1036062	14.187038651061	-7.90720203195391	16.2417951489616	29.1332824118421
883578.1	11.0645664849699	-2.14480117244166	11.2705280963061	10.9703942554801
753531.2	0.242917477580659	0.753936372611936	0.792104131324534	-72.141115984922
642624.9	1.17512604614833	-1.54555017281692	1.94155776659636	52.7532326034143
548046.8	1.0250575869913	-7.46070479735608	7.53079405706599	82.1768728370949
467390.6	0.0971679827968834	-0.422535374259524	0.43356401993414	77.0491870495716
398593.7	-0.0393605683273211	-0.0197343384362248	0.0440306535559622	153.372035502256
339937.5	0.00509181457104571	0.0201141485764327	0.0207486276312609	-75.7942375908966
289906.2	-0.0136400550064085	0.00686633095195363	0.0152708087971661	-153.279560114122
247234.4	-0.0149760209809056	0.00703455723254677	0.0165458816591471	-154.839552302924
210843.7	-0.014861243182505	0.00936976574172273	0.0175684108269448	-147.76925311101
179812.5	-0.0123303369847608	0.0104925709196502	0.0161904680186105	-139.603687797924
153343.8	-0.0116423676742845	0.0100863208228424	0.0154038499344978	-139.096104487217
130781.2	-0.00958735399107529	0.010765087750517	0.0144154247535936	-131.688161266632
111531.3	-0.00711326334084258	0.010889842320099	0.0130071972812284	-123.15263710523
95109.37	-0.00605556339569148	0.00956953746984126	0.0113245704300841	-122.3254579364
81109.37	-0.00440358359261949	0.00873200655540757	0.00977954431151413	-116.7619804499
69171.88	-0.00356980837427184	0.0078422054999405	0.00861647949758591	-114.475248593753
59000	-0.00227735460290015	0.00724590560912678	0.00759535990481856	-107.447692053355
50312.5	-0.00221743045785151	0.00596991748840458	0.00636843094127324	-110.376709597844
42906.25	-0.00184121876366353	0.00509080921722951	0.00541354089500537	-109.883794006693
36593.75	-0.00145069352995541	0.00445970054055531	0.00468971647642838	-108.019160158219
31203.13	-0.00122385281533508	0.00386469961611273	0.00405385234516324	-107.571680120222
26609.38	-0.000967846842538429	0.00333705047362266	0.00347456952356933	-106.173777691662
22703.13	-0.000800395929619671	0.00294186924197102	0.00304880768186629	-105.220089441666
19359.37	-0.000594871430998736	0.0024999634294982	0.00256976441882264	-103.384733736524
16500	-0.000449221867138984	0.00223955076743463	0.0022841602233278	-101.342196492662
14112.02	-0.000411802212415546	0.00188207386003823	0.00192659883649646	-102.341950549386
12011.13	-0.000270105900287426	0.00165465624351217	0.00167655733023476	-99.2711832463821
10236.38	-0.000205569016552188	0.00147763900228727	0.00149186984742194	-97.9201487654636
8750.684	-0.000129329143356243	0.0013187394475333	0.00132506594469924	-95.6011020896716
7449.463	-8.16196761423349E-05	0.00118603944673374	0.00118884454019105	-93.936716990596
6363.206	-4.54548136455481E-05	0.00105335470641599	0.00105433499307017	-92.4709190633128
5414.761	-4.34980193353511E-05	0.000892886915693297	0.000893945815976778	-92.7890252311695
4620.567	6.0828782158909E-05	0.000825138993348756	0.000827378087142471	-85.783814044782
3941.215	0.000104891616613201	0.000600272692440965	0.0006093681617266	-80.088212490725
3361.769	-5.00228196988078E-05	0.000628084698365031	0.000630073543969997	-94.5536206486134
2867.244	-2.03638287551429E-05	0.000552774209928104	0.000553149177603301	-92.1097837650419
2442.658	0.000117893961029352	0.000483781891406292	0.00049793965949685	-76.3043992116811
2083.003	7.22541311856448E-05	0.00043559111002484	0.000441543060874095	-80.5817583354507
1777.843	7.89806686519678E-05	0.000377309872197734	0.000385487594714256	-78.1772263566252
1513.548	0.000163378391900251	0.00033565940251727	0.000373309166024842	-64.0460244806366
1292.065	0.00018708446899843	0.000204797815570882	0.000277385550818765	-47.5880467281997
1101.762	0.000160284161639153	0.00016884335194737	0.000232806980069734	-46.489680905356
939.101	6.56524839548887E-05	0.000112166172978785	0.000129967299772495	-59.6589439390994
801.2801	0.000105323270437212	8.51070709974231E-05	0.000135411243363875	-38.9401426248603
684.3433	0.000140425805836285	9.67113320703503E-06	0.000140758437623747	-3.93974259707322
582.9476	0.000125794865706465	-3.4070363303082E-05	0.000130327042066148	15.1544586614686
497.0677	0.00013796927929996	3.15612852185171E-06	0.000138005373727971	-1.31044615071141
423.5089	9.62671959344651E-05	2.48143095714128E-05	9.94138972809668E-05	-14.4542011034156
361.5036	8.5331725243285E-05	-2.46907862916964E-05	8.88320790069539E-05	16.1378318548296
308.1262	9.62340276155506E-05	-7.32953225697924E-05	0.000120967732812186	37.294212496366
262.7298	5.21683329230169E-05	-7.16082967831129E-05	8.85961800990602E-05	53.9257792719936
224.2111	-2.94736814893662E-05	-7.98099326491854E-05	8.50783359616543E-05	110.269108123918
191.2854	7.25079025109298E-06	-9.17902684756635E-05	9.2076204016563E-05	85.4834122727949
163.1722	5.74549216066936E-05	-7.12674443670251E-05	9.15429770295806E-05	51.1246745552683
139.1537	-2.69928479570406E-05	-5.21541794755617E-05	5.87253972110961E-05	117.364216388362
118.6706	5.7634590257171E-05	-5.34340863688406E-05	7.85935594065105E-05	42.8341643357977
101.1982	-2.18154035539372E-05	-4.36541525756826E-05	4.88016072411771E-05	116.552793558897
86.24196	8.20095777629573E-05	-3.77714900863341E-05	9.02898460968928E-05	24.7295746350902
73.61024	7.28066784282105E-05	-3.83326911122566E-05	8.22812714513852E-05	27.766789529611
62.69291	7.55895485106607E-05	-2.65632381880483E-05	8.0121067560789E-05	19.3621976835519
53.57697	1.36022028584696E-05	-6.79746886799167E-05	6.93222779756591E-05	78.6841794137569
45.65746	-5.22817106022614E-05	-3.27982197021716E-05	6.17179105214243E-05	147.898455093812
38.96512	5.70069115908729E-05	-5.28036974456015E-05	7.77046873300203E-05	42.8079629758264
33.18414	0.000140140663760803	7.01183175360526E-05	0.000156703491005801	-26.5807439753784
28.30617	1.96287787031826E-05	-9.44831300947479E-05	9.65005224124697E-05	78.2638002794694
24.17237	4.27837254180143E-05	-5.954880282088E-05	7.33246689596625E-05	54.3040803858067
20.61345	-8.30640767852896E-05	-3.85596524168544E-05	9.15777682994138E-05	155.098529226324
17.55618	0.000103808935467739	-6.94680679446915E-05	0.000124908396622939	33.790105753749
14.98558	-1.95695683024693E-05	9.24775937665171E-05	9.45255169379674E-05	-101.948328544131
12.76553	4.9255692851705E-06	8.86541299796447E-05	8.87908553581435E-05	-86.8199509214966
10.8809	3.94690243231068E-08	-6.35237681174109E-05	6.35237803789925E-05	89.964400596954
9.278505	2.69777118777289E-05	-9.70563514932821E-05	0.00010073595337984	74.4662360133424
7.923394	6.6928558383139E-06	9.07993567502095E-05	9.10456891100522E-05	-85.7843297067976
6.75822	-3.75891146107736E-05	-9.50907695854368E-05	0.000102250652797782	111.568748290613
5.761429	5.12309023533654E-05	-5.15468149799592E-05	7.26751641932662E-05	45.1761121346611
4.919708	7.61112982861451E-05	8.41842048994583E-05	0.000113489691520228	-47.883131451848
4.191257	-8.3837938836077E-05	-4.97556937098908E-05	9.74906613211453E-05	149.3119419744
3.564097	7.21526557622701E-05	4.20423590096471E-05	8.35078779795338E-05	-30.2287662569764
3.051758	6.24346183970687E-05	4.53602387877632E-05	7.71727467262277E-05	-35.9992992314806
2.604164	-1.25603655374345E-05	8.21114463589846E-05	8.30665540732152E-05	-98.696964944102
2.214424	-1.78824571592895E-05	-6.56177011299664E-05	6.80107710266206E-05	105.2443255564
1.892567	4.46961276579028E-05	-1.76155626140322E-05	4.8042188478674E-05	21.5103081307446
1.607507	-1.25641641940733E-05	6.6766404915713E-05	6.79382885217502E-05	-100.657340040142
1.376413	6.05257152944651E-05	3.67078934671528E-05	7.07872280478795E-05	-31.2361521115313
1.17375	-1.39822947416608E-05	7.00469211155791E-05	7.14288157819716E-05	-101.288624938817
1.001604	5.3342400137484E-05	-3.13131770461502E-05	6.18540759299741E-05	30.4138831910052
