EC-Lab ASCII FILE
freq/Hz	Re(Z)/Ohm	-Im(Z)/Ohm	|Z|/Ohm	Phase(Z)/deg
6999984	2.68541744450226	0.909996481131805	2.8354118654808	-18.7197687557615
5969734	4.15674936649439	1.09889235726455	4.29954994257608	-14.8081400517797
5091109	5.45318429012643	0.569015512056843	5.48279103696676	-5.95700208892951
4341796	4.15656165478499	-16.4629404503534	16.9795586827782	75.8301047488718
3702781	-0.279503309876095	-7.44323752818747	7.44848353701947	92.1505210642757
3157797	-2.81662334645603	-4.35559054982835	5.1869582718155	122.889477589926
2693047	0.538809102100428	0.491214189657173	0.729113591031482	-42.3543809373111
2296687	0.673796848399835	0.613111070035516	0.910992523083283	-42.300144752424
1958656	0.812100076365612	0.696401720370387	1.06980460373279	-40.6141419557382
1670375	1.02593702269775	0.74510863589934	1.26796437403963	-35.989828239127
1424531	1.37505468011995	0.72810985441864	1.5559303755057	-27.9018184931895
1214875	1.95097779522076	0.640464222814255	2.05341393249134	-18.1739004051844
1036062	2.65352410994676	0.519951674868267	2.70398593677316	-11.0865041526634
883578.1	3.73546695665126	-0.137941237425053	3.7380129974648	2.11482561000014
753531.2	4.946147982722	-0.963306345821064	5.03908116454617	11.0209004851209
642624.9	4.01702399340066	-1.24826479410304	4.20650053604581	17.2623016348195
548046.8	3.67274621928664	-1.99597764641703	4.18007075972175	28.5221541683997
467390.6	3.06925457407124	-2.57511540306099	4.00643769195768	39.9967684723288
398593.7	2.53321505686959	-3.23120481088521	4.10583280885115	51.9040976918745
339937.5	1.82601753714488	-4.15629079421881	4.53972391363932	66.2822787550322
289906.2	-9.88514539816686	-3.05484093988622	10.3464077201174	162.827099629064
247234.4	-15.6965219956114	13.668044845602	20.8133671629581	-138.951661827065
210843.7	-25.2198585417154	53.6118062615567	59.2475065761491	-115.193050119493
179812.5	-15.4735899728549	63.0627140939755	64.933334240177	-103.786205263572
153343.8	-6.09397883291201	56.4544645533855	56.7824193393117	-96.1609391512939
130781.2	1.45811813918155	44.3639913970607	44.3879470260372	-88.1175284401293
111531.3	-3.52033508018031	89.1965957436331	89.2660375021197	-92.2601278904842
95109.37	4.33848278248652	72.5408016309569	72.6704226911869	-86.5773605910382
81109.37	9.13002303497409	52.5831307210167	53.3698693744203	-80.1499200452606
69171.88	11.5642451601077	33.8262692407767	35.7484021583146	-71.1258920677297
59000	10.1626992066864	2.70485936877842	10.5164974858768	-14.9040761049964
50312.5	9.99024634351659	0.600782917259004	10.0082946658168	-3.44144865109928
42906.25	10.1258581810432	-1.26585162415175	10.2046746267074	7.1256812923917
36593.75	9.59692924633399	-2.63116323405906	9.95108390696234	15.3318807723088
31203.13	8.98718591449051	-3.65544606872365	9.70215422589044	22.1335315132422
26609.38	8.20654150036319	-4.42309492730223	9.32261187292005	28.3234180275806
22703.13	7.28036379185231	-4.97771084668595	8.81937085142297	34.3610925740646
19359.37	6.32896279511731	-5.28231607924109	8.24370264037877	39.8492490288165
16500	5.35911932303883	-5.4939983569501	7.67490572350817	45.7120167491808
14112.02	3.89855643746199	-5.5999853555813	6.82338466443168	55.1554211848578
12011.13	2.74271598128403	-5.27990853304127	5.94978361550005	62.549802494432
10236.38	2.66068066786134	-4.81061030088196	5.49738056562238	61.0536378040069
8750.684	3.68761305036207	3.68040665767606	5.2099791914236	-44.94396109523
7449.463	5.29048481992716	8.75748104112329	10.2314565832785	-58.8633920405603
6363.206	6.2930669374779	12.9779550769442	14.4232454551241	-64.131051417434
5414.761	7.01115175483527	17.4827428991613	18.8362031260949	-68.1476001528601
4620.567	7.59182027284804	22.4467487883174	23.6958280340877	-71.3137076329735
3941.215	7.94472837737248	28.2114556100905	29.3087859972114	-74.2720606165725
3361.769	8.41804860317995	35.1442130397114	36.1383349431891	-76.5298008082855
2867.244	10.5819306699651	39.1011942104364	40.5077849972843	-74.856821342283
2442.658	11.1682303363776	49.5133616610866	50.7572886571766	-77.2890844783929
2083.003	12.107260410619	61.6105169799858	62.7888649140248	-78.8823082193132
1777.843	13.054914549282	75.7062441634099	76.823604440425	-80.2160393748187
1513.548	14.5543574362281	92.5919963683539	93.7289022226269	-81.066881700588
1292.065	16.4076633320571	112.127394065979	113.321506855696	-81.6749618085603
1101.762	17.9260946473738	134.498280659641	135.687627916867	-82.4082904905483
939.101	21.1340742365748	159.807215213523	161.198620118593	-82.4665030025335
801.2801	22.3478988808027	189.84166781509	191.152523978109	-83.2861191284682
684.3433	27.5271719598899	229.003210463155	230.651719262054	-83.1456871728816
582.9476	32.1508715164254	266.067290294049	268.002763985156	-83.1099346064655
497.0677	31.2954660539294	321.456649627432	322.976444629056	-84.4394831700665
423.5089	36.1256494967051	375.520794060434	377.254462297449	-84.50497224605
361.5036	40.9784023397563	439.070453975233	440.978562985023	-84.6680360345442
308.1262	46.7157493812485	513.415197385627	515.536154063683	-84.8009622430146
262.7298	52.9424653430524	602.955438005195	605.275280229282	-84.9820169062759
224.2111	59.7382747585214	696.897126388432	699.452833463114	-85.1005618740885
191.2854	69.7826453037686	820.494406962362	823.456549820395	-85.1387208632442
163.1722	79.7737243054293	959.904881825849	963.21401009467	-85.2493017177044
139.1537	91.6553614230632	1125.18854527794	1128.91539439512	-85.3430949087674
118.6706	102.961697397676	1317.28725850447	1321.304973331	-85.5307385866727
101.1982	119.992030846626	1536.51748018788	1541.19565740032	-85.5346346996796
86.24196	144.474535522034	1791.41011199896	1797.22649679623	-85.3891607154959
73.61024	178.032483942044	2097.72745933462	2105.26864294917	-85.148976807777
62.69291	209.265438593538	2450.47176778083	2459.39096291758	-85.1188965235327
53.57697	245.494590242276	2863.93414788471	2874.43670955865	-85.100619169868
45.65746	300.902638928816	3334.20678220336	3347.75704981786	-84.8431892325157
38.96512	340.64602270068	3874.37456188061	3889.32101510396	-84.9753133000729
33.18414	436.052844856292	4516.40506109559	4537.4063912545	-84.4852624978975
28.30617	535.144822614269	5279.94387757121	5306.99418988494	-84.2125918831947
24.17237	667.442788555674	6142.77599351859	6178.93006778222	-83.7988590593308
20.61345	786.934330289004	7199.99953702414	7242.87642952268	-83.7625335351195
17.55618	1076.08077055316	8471.07149168797	8539.14527584833	-82.7604876472152
14.98558	1215.55645654695	9764.64699298976	9840.01567055443	-82.9040135748954
12.76553	1503.86908631086	11266.9090197434	11366.8316204621	-82.3972897008817
10.8809	1937.76566934096	13196.2347170545	13337.7489291436	-81.6462566230243
9.278505	2405.7083897846	15367.0543471774	15554.221040148	-81.1025769712246
7.923394	3005.4243579494	17819.119505084	18070.7939921803	-80.4264294771907
6.75822	3782.22147440211	20679.547792644	21022.5806263093	-79.6353466494536
5.761429	4746.61177990077	24038.3125851671	24502.4650868294	-78.8300544683972
4.919708	6110.06492701366	27697.1160299791	28363.0592459708	-77.5596351492537
4.191257	7857.36117616379	32046.4504345967	32995.6528971583	-76.2236121625676
3.564097	9990.83758897953	36947.2335598273	38274.2067645274	-74.8686242728627
3.051758	12807.8542005865	42201.7799864974	44102.5097160265	-73.1174360678249
2.604164	16300.0026467617	48071.9360600872	50760.231706027	-71.2694752911894
2.214424	54814.1789723744	53524.9193154808	76612.7352608182	-44.3181995096999
1.892567	64441.1845320861	57410.2967094762	86305.3209956864	-41.697668171688
1.607507	76364.6073544079	60445.3959481713	97391.9870817107	-38.3629105645778
1.376413	88798.8522657904	62676.6665599546	108690.389155571	-35.2154929677416
1.17375	103015.337071105	63088.3926212825	120798.613218077	-31.4840308424387
1.001604	117487.805270153	61598.0185823005	132656.323936942	-27.6677022085211
