EC-Lab ASCII FILE
freq/Hz	Re(Z)/Ohm	-Im(Z)/Ohm	|Z|/Ohm	Phase(Z)/deg
6999984	1.96220570976734	1.07672461105428	2.23821069953066	-28.7549755684511
5969734	4.11302707652714	0.707217760818081	4.17338575900454	-9.75636544253332
5091109	7.30885017651981	-1.53857610488656	7.46903657330325	11.8876882263287
4341796	2.31546840577358	-4.572026130796	5.12492115830254	63.1404073896528
3702781	1.89808682366707	-6.23938228761579	6.52170414241494	73.0796781491258
3157797	0.955574833417686	-6.20842737933208	6.28153594168667	81.2499417161323
2693047	1.47934104377924	-7.03070272759452	7.18465244584698	78.1176387459316
2296687	0.469142768234904	-10.1576558365025	10.1684840084361	87.3556091641644
1958656	-4.1640931817195	-8.02489346568118	9.04093950657648	117.424663435748
1670375	-3.82500164785034	-14.6853946737256	15.175356810604	104.599060487524
1424531	-3.97928922170557	-7.17373133671257	8.20348486932926	119.017256923094
1214875	8.67501881756208	-6.52376788005944	10.8542848146689	36.9438144271758
1036062	5.32339043011227	-10.2637783533378	11.5621638008574	62.5861280186433
883578.1	-0.0390096995903594	-8.60247926073519	8.60256770900649	90.2598176361235
753531.2	3.34941814991878	-6.03431280929231	6.90156018762385	60.9670065853831
642624.9	0.490624428072424	-9.71510561149444	9.72748628227828	87.1089508333606
548046.8	-1.58002395196593	-6.31730321663148	6.51189646874461	104.042202806436
467390.6	3.02435753715196	4.41596648791092	5.35233580176731	-55.5939745404068
398593.7	1.01626841845328	1.76539622901343	2.0370138300366	-60.0726767629634
339937.5	0.0745856077494888	-0.00284891362105686	0.0746399972680924	2.18743827025046
289906.2	1.44551818379317	-1.36384562549243	1.98735948178772	43.3347919388712
247234.4	0.438408496244339	0.0541050380537696	0.441734495734737	-7.03543471008065
210843.7	0.622675188014676	0.0794870388648969	0.627728109229323	-7.27469615574933
179812.5	2.05091033444445	-0.501520974104131	2.11133997437585	13.7412066935769
153343.8	1.81448949595465	-1.18731316781493	2.16842908332195	33.1987732021283
130781.2	0.91933768849449	-1.82137260106637	2.04024016659845	63.2176421004365
111531.3	0.0125582375561142	-1.618437508194	1.61848623017304	89.5554233227897
95109.37	-0.331699246339152	-1.31080247099169	1.35211963523198	104.20062563679
81109.37	-0.478850356921909	-1.22750014134324	1.31759411858202	111.310859987025
69171.88	-0.715253798094108	-1.33116750606223	1.51115681677448	118.249722660736
59000	-1.28877371491331	-2.09679461466445	2.46119591750379	121.576544802384
50312.5	0.0143261239455991	-1.69009303073465	1.69015374755232	89.5143422488788
42906.25	0.485480289696841	-0.764270205845051	0.905428108259604	57.5754402128857
36593.75	0.341222429974273	-0.359970653989318	0.495995583096307	46.5315870384918
31203.13	0.205635418028239	-0.206429070296747	0.291374134423816	45.1103537685139
26609.38	0.122398333491082	-0.137224868745902	0.183880441166873	48.2684914056971
22703.13	0.0735050660877444	-0.0996280585472837	0.123809308173758	53.5802857215298
19359.37	0.0436104276508224	-0.0759550843903565	0.087584497741517	60.1372491064746
16500	0.0262995115303683	-0.0651342858309715	0.0702434302796117	68.0124394089888
14112.02	0.0133639346182262	-0.0454804043207505	0.0474031847628318	73.6251339700903
12011.13	0.00593957456141948	-0.0342026959992727	0.034714592891021	80.1483730592137
10236.38	0.00142233077507631	-0.0252320880409031	0.0252721445812898	86.77365593165
8750.684	-0.00075749835405355	-0.0184572509764711	0.0184727885649362	92.3501395600993
7449.463	-0.00189521517897416	-0.0134278299997366	0.0135609166016328	98.0337090004585
6363.206	-0.00207756016320939	-0.0100631614189451	0.0102753819381812	101.664943618659
5414.761	-0.00177660496057633	-0.00822969286497792	0.00841927371201417	102.181923437206
4620.567	0.0336146600003074	-0.0059576898478901	0.0341385329980642	10.0504417604622
3941.215	0.0307486114978656	-0.00582504872869584	0.0312954997042442	10.7270533503101
3361.769	0.0379911506213501	-0.00595698559348733	0.0384553403689933	8.91137874543028
2867.244	0.0450460901046181	-0.00699209878581431	0.045585520498772	8.82309740835652
2442.658	0.0514059598883923	-0.0076745955080204	0.0519756878574851	8.49119441679314
2083.003	0.0561677451824507	-0.00845373335831468	0.0568003627327695	8.55926753243264
1777.843	0.0605371095800233	-0.00892835970508211	0.0611919704154645	8.3898267236786
1513.548	0.063696126701032	-0.00955607670759486	0.0644089679994592	8.53222392450246
1292.065	0.0667926129052909	-0.0100286892917679	0.0675413040118922	8.538984826485
1101.762	0.068924849316844	-0.0103237836777226	0.0696937254189648	8.5186161768681
939.101	0.0711329009954787	-0.010355162238782	0.0718826751660236	8.28264350894347
801.2801	0.0729738441686772	-0.00896230233535829	0.0735221381347465	7.00173333257105
684.3433	0.0747624438581113	-0.00980049930015639	0.0754020742298885	7.46823556936657
582.9476	0.0772447076100067	-0.00848742489533607	0.0777095955150289	6.27034124793065
497.0677	0.0810404183142017	-0.0067567366303907	0.0813216016224057	4.76600675230477
423.5089	0.088510715718905	-0.00406329231322542	0.0886039341197417	2.62845190657178
361.5036	0.097080106477027	-0.00311513718769551	0.0971300733722005	1.83789448113279
308.1262	0.103844438385513	0.00032646836324111	0.103844951563351	-0.180127101886803
262.7298	0.110451618827283	0.00165971349330308	0.110464088057827	-0.860896589158228
224.2111	0.117960513445333	0.00276718398212542	0.117992966059327	-1.34383010960251
191.2854	0.127257111735037	0.0030320250112773	0.127293227089318	-1.36486969279751
163.1722	0.138165167420803	0.00272828759349454	0.138192101950913	-1.1312478707063
139.1537	0.148147439876178	0.00140390049546926	0.148154091669677	-0.542939963286124
118.6706	0.15391333490277	-0.00365630163845446	0.153956757573559	1.36083893470876
101.1982	0.158130010599206	-0.00387768998756218	0.15817754812787	1.40473495026712
86.24196	0.169946901177368	-0.00694845746906057	0.170088889351978	2.34129405401914
73.61024	0.184473585692022	-0.0110476826140167	0.184804099275995	3.42721408763705
62.69291	0.196365935710145	-0.0149649135813438	0.196935343059132	4.35804819710013
53.57697	0.199396225735249	-0.017472357124489	0.200160281027351	5.0078270274865
45.65746	0.210391268543526	-0.0213338663319132	0.21147013910248	5.79005364658429
38.96512	0.220701446807125	-0.0258677385385705	0.22221221505547	6.68496215637708
33.18414	0.220832176420039	-0.0281008356052792	0.222612908664629	7.25189816508107
28.30617	0.234670312017033	-0.0332642326187278	0.23701616930894	8.06785882028278
24.17237	0.239713657799083	-0.0357981249179447	0.242371911497716	8.49361229868859
20.61345	0.255038011494819	-0.040518444705419	0.258236580810267	9.02725945949549
17.55618	0.266280846365996	-0.0451375451669673	0.270079408924655	9.62081508736127
14.98558	0.267291519021958	-0.0473423905653181	0.271451760144422	10.0440017148449
12.76553	0.273090016004251	-0.0495985655165637	0.277557515737735	10.2938456909896
10.8809	0.273570471183138	-0.0506375390472969	0.278217474404701	10.4866860960968
9.278505	0.286264975935463	-0.0558271148733486	0.291657852975731	11.0352588074669
7.923394	0.290430392426788	-0.0573754339868735	0.296043498949665	11.1750662390567
6.75822	0.279724134113732	-0.0544690678682325	0.284978017678753	11.0189868060852
5.761429	0.28916836069207	-0.0582030477361397	0.29496768567271	11.3802882621167
4.919708	0.288795914523726	-0.0579611459448149	0.294554875506808	11.3484547270192
4.191257	0.278586033974115	-0.0554815617848867	0.284057004883733	11.2633246578187
3.564097	0.266987878927089	-0.0504421788653124	0.271711135036211	10.6988179901661
3.051758	0.257121050753542	-0.0498932153731575	0.261917100779765	10.9815210958616
2.604164	0.269432303889116	-0.0526223466132291	0.274523000388091	11.0512214116392
2.214424	0.262359725514844	-0.0514634101947561	0.267359511072821	11.0979976860337
1.892567	0.268424328435374	-0.0524154210307424	0.273494051960571	11.0491530339988
1.607507	0.279362912205456	-0.0573736787158077	0.285193575883641	11.6056497516755
1.376413	0.239150724018113	-0.137620620866874	0.275921191803333	29.918515340491
1.17375	0.306575108578085	-0.184386136216999	0.357752071173178	31.0243296146714
1.001604	0.325124199090547	-0.207823762517013	0.385871042060683	32.5872610769631
