EC-Lab ASCII FILE
freq/Hz	Re(Z)/Ohm	-Im(Z)/Ohm	|Z|/Ohm	Phase(Z)/deg
6999984	2.98598874415005	1.37559022781218	3.28760965673286	-24.7346567707331
5969734	9.51558239976687	0.489070442847617	9.52814243726552	-2.94223052420179
5091109	5.60965004535849	-1.9847762350747	5.95042102163433	19.4845241728123
4341796	4.5066525799412	-5.41503214522942	7.04503304535604	50.231129685028
3702781	1.76635622598263	-5.66370801321688	5.93275676022915	72.6787222840932
3157797	2.02389679747081	-9.30662352085844	9.52414823518661	77.7310068257773
2693047	0.723920335158992	-6.32050205776333	6.3618241813058	83.4660851719188
2296687	2.42857423268332	-8.37311352871589	8.71819952561413	73.8254973110475
1958656	-0.122451329839195	-9.31370797933202	9.31451290473379	90.7532488892902
1670375	6.85087126271239	-11.5898353586705	13.4632358925834	59.4122283125161
1424531	-6.05495390366602	-5.20859449092394	7.98698462164562	139.297212673308
1214875	-0.539594441998759	10.8365864440769	10.8500123466191	-92.8506181941461
1036062	11.3593011088537	-10.1904294447527	15.2603595616253	41.8952813152286
883578.1	6.97062630409801	1.11788287402397	7.0596949786389	-9.11097432294206
753531.2	-4.92685003079025	-6.42837680897507	8.09925179408977	127.467353077242
642624.9	8.33051950865861	5.91333336455833	10.2159222180154	-35.3686445863801
548046.8	9.33988367682552	5.18260101977162	10.6814222099292	-29.0254231069088
467390.6	0.0302067821855792	0.11990502239687	0.123651381253914	-75.8601277373366
398593.7	3.95389819032119	2.38527008274459	4.61766437358342	-31.101340871915
339937.5	3.3157134891123	0.15944182877701	3.31954479389042	-2.75304616278534
289906.2	3.20214135909964	0.387001605775425	3.22544253189066	-6.89118112600056
247234.4	2.99390878651072	0.164997136952683	2.99845191342944	-3.15443346503763
210843.7	2.67061264404484	-0.206842136580907	2.67861075260992	4.42878499352918
179812.5	2.15137398048758	-1.31524568506062	2.52156324846107	31.4395922358484
153343.8	0.0751762009075401	-1.90682836812415	1.90830969359428	87.7422983800982
130781.2	-0.400419110092672	-1.16188191212248	1.22894468608021	109.015476468172
111531.3	-0.4546466925117	-0.884481182656174	0.994490109294553	117.20436116352
95109.37	-0.588318891516514	-0.554801561843377	0.808655607251363	136.679483098914
81109.37	-0.57907641994842	-0.125310764225096	0.592479778364592	167.789601684251
69171.88	-0.481234656844814	-0.0239094093201684	0.481828242014294	177.155685465475
59000	-0.269653281741585	-1.00598034124152	1.0414938018627	105.005402155831
50312.5	-0.587091427607292	0.0509368597445671	0.589296960836051	-175.041356609883
42906.25	0.760267827610215	-0.51900718051912	0.920530077254167	34.3199312860624
36593.75	0.381710054777006	-0.833457679926602	0.916708388827384	65.3929909612097
31203.13	0.217430327058495	-0.246917823985958	0.329005104712259	48.6335743831765
26609.38	0.128973001914357	-0.158688633848279	0.204489896414062	50.8977718092406
22703.13	0.0773579072188399	-0.113626818322813	0.13746017478326	55.7527010383919
19359.37	0.0456547316400077	-0.0859019537782697	0.0972805231484961	62.0104773218753
16500	0.0329863172801658	-0.0591225115809371	0.0677020568620024	60.8414715324699
14112.02	0.0141833613585462	-0.0510762472686811	0.0530089688116885	74.4805599582206
12011.13	0.00635690198104509	-0.0386393191134072	0.0391587433958794	80.6574460601875
10236.38	0.00175765311817387	-0.0289106394307151	0.0289640193477467	86.5209242482178
8750.684	-0.000674849651603425	-0.0211422328962039	0.0211530005883231	91.8282323045146
7449.463	-0.00167182961572058	-0.0154582321338267	0.0155483746728484	96.1726274903146
6363.206	-0.00202491673856373	-0.011789967326891	0.0119625924183378	99.7454204134118
5414.761	-0.00170911417589093	-0.00973911974714917	0.00988794845837812	99.9534613888238
4620.567	0.033700524441807	-0.00781754603086961	0.0345953663602164	13.0599770639002
3941.215	0.031008435208874	-0.00768208648417019	0.0319458527332299	13.914406105467
3361.769	0.0377933192109168	-0.00793919376656887	0.0386182052229435	11.8635495144198
2867.244	0.0451149078486912	-0.0090947359876379	0.0460224850793689	11.3975285621722
2442.658	0.0515145848666747	-0.00958931840645988	0.0523994988667477	10.5447840165231
2083.003	0.0567494137379482	-0.0101191522187057	0.0576445418164301	10.1103158500533
1777.843	0.0599918566446284	-0.0105624085451729	0.060914590517747	9.98538813240301
1513.548	0.0623566345277017	-0.0108883855971295	0.0633001327844826	9.90482453682966
1292.065	0.0657818664520428	-0.011184795024144	0.0667259589188983	9.64963486445635
1101.762	0.0681451383476743	-0.0117770768613335	0.0691553282099176	9.80519863541232
939.101	0.0698804673266914	-0.0109901814525901	0.0707394077029037	8.93776345189606
801.2801	0.0708881729701026	-0.0124506539162192	0.0719732717748794	9.96170778673025
684.3433	0.073647823870789	-0.01050321327109	0.0743930067272506	8.11645137088783
582.9476	0.0771875715650217	-0.009224878183742	0.0777368611510024	6.81523557025597
497.0677	0.0827230905643886	-0.00662440461179537	0.0829879054379903	4.57843412116602
423.5089	0.0885380025273372	-0.00468452089983416	0.0886618442600409	3.02867954224672
361.5036	0.0972997794526122	-0.00189467877634018	0.0973182248563572	1.11555627557105
308.1262	0.104971461602377	0.000152465486732241	0.10497157232634	-0.0832190257706584
262.7298	0.113756583835426	0.00177397749602043	0.113770415144108	-0.893426840934576
224.2111	0.122369784758222	0.00278428157146754	0.122401456060142	-1.30342684476327
191.2854	0.131072786194134	0.00321831302571453	0.131112290878562	-1.4065369025328
163.1722	0.136585789268129	0.00226677822480012	0.136604597702706	-0.950793667214254
139.1537	0.141832032560014	0.000118779972428162	0.141832082297295	-0.0479834449026195
118.6706	0.151153354378883	-0.00110801716325736	0.151157415438418	0.419994450423834
101.1982	0.162080464300622	-0.00428995029759167	0.162137227623581	1.51615232310826
86.24196	0.181373566000723	-0.00725338993797401	0.181518544808543	2.29012032854703
73.61024	0.197804984585484	-0.0119782464390356	0.198167329079791	3.46536219059465
62.69291	0.215314422457982	-0.0166574169222045	0.215957796934805	4.42377447761076
53.57697	0.221663312172936	-0.0197409214703774	0.222540620885213	5.08922886031412
45.65746	0.204097224229279	-0.0210679583076417	0.205181714110563	5.89348971733926
38.96512	0.208733268687083	-0.0242670966185447	0.210139166827814	6.63137341379849
33.18414	0.217609329660099	-0.0281799253547964	0.219426362472971	7.37861351105221
28.30617	0.239894068758429	-0.0344800112598809	0.242359310532843	8.17911576494128
24.17237	0.253008835470618	-0.0400159870631319	0.256153762507668	8.98747899977956
20.61345	0.253421431509402	-0.0412837328103065	0.256762085485819	9.25251781665117
17.55618	0.24316673052624	-0.0401375931173396	0.246457065664741	9.3728446832066
14.98558	0.271992557442506	-0.0497230685042249	0.276500153427788	10.3598676177226
12.76553	0.271186541907707	-0.0508689660673572	0.275916277556476	10.6240412683235
10.8809	0.273855311374148	-0.0518021900995077	0.278711676230001	10.7114517095487
9.278505	0.291373860146982	-0.057851177187721	0.297061416341736	11.2298180859595
7.923394	0.298862231061736	-0.0610675678326491	0.305037507523572	11.5484742932994
6.75822	0.271555517655989	-0.0531512401765932	0.276708246175863	11.07443193192
5.761429	0.271272113842706	-0.0545647813635599	0.276705394081761	11.3729486727611
4.919708	0.30341726576843	-0.0613401553302344	0.309555571460646	11.4291214549957
4.191257	0.306400318331825	-0.065428836494922	0.313308295004973	12.05392047143
3.564097	0.285346325519708	-0.057861843978474	0.291153771186616	11.4628743987069
3.051758	0.286692018977382	-0.0586835924220246	0.292636425902316	11.5681955006078
2.604164	0.296572193243768	-0.0612283124472919	0.302826636956795	11.665013908829
2.214424	0.309800629437378	-0.0645683726390681	0.316457745591814	11.7729992644773
1.892567	0.343112813769482	-0.07527627846575	0.351273285452316	12.3741981493301
1.607507	0.328200472916671	-0.0689828596765916	0.335371712211819	11.8699379938355
1.376413	0.288649161259448	-0.059498504624779	0.294717509402424	11.6471032481532
1.17375	0.24239402893565	-0.13249808580275	0.276243747449693	28.6620188957691
1.001604	0.328504875550528	-0.21263570009602	0.391317510745165	32.9143053864238
