EC-Lab ASCII FILE
freq/Hz	Re(Z)/Ohm	-Im(Z)/Ohm	|Z|/Ohm	Phase(Z)/deg
6999984	-0.481522665803745	0.838597812211466	0.967011048710718	-119.864432318974
5969734	-0.895059903833073	0.310356091846411	0.947340031454307	-160.876350223982
5091109	-0.492152298301666	0.192662453905854	0.528519352406927	-158.621188342347
4341796	0.133812767926833	0.291483989211127	0.320731621182996	-65.3413674638684
3702781	1.05327847501671	0.0113958223201402	1.05334012109094	-0.619880746720857
3157797	1.93692858020092	-1.58322792657687	2.50166004730699	39.2622537677049
2693047	1.10889807602813	-4.96914405514331	5.09136991229129	77.4201772219188
2296687	-0.0488034667563747	-4.28846762337056	4.28874531011868	90.6520072468905
1958656	-4.36542476197985	-7.55562439173753	8.72607548108117	120.018099599628
1670375	-9.0752250369015	-4.44893122941241	10.1070618160989	153.88460354578
1424531	4.83729593240521	2.77917812652199	5.57882272496647	-29.8787176920412
1214875	4.44794915377536	2.73722779541459	5.22270693018105	-31.6077668078752
1036062	3.36494481165382	3.28047784908647	4.69940299440503	-44.2717784691384
883578.1	2.42337029430192	4.11622246224052	4.77661082169757	-59.5131261802386
753531.2	1.62538964892309	5.26325351900309	5.50851423853336	-72.8383483258167
642624.9	1.01823800088495	6.53426153206768	6.61312198556065	-81.1427986084428
548046.8	0.605563801345799	7.5932040492564	7.61731286288965	-85.4402685508215
467390.6	0.456197972361521	8.37797631080277	8.39038757474046	-86.883205462079
398593.7	0.454353594237365	8.96822401264988	8.97972600526689	-87.0997262128589
339937.5	0.54581530271052	9.35908374668563	9.37498602250414	-86.6623302320561
289906.2	4.45045216105281	29.2183277300747	29.5553243896912	-81.3394377237317
247234.4	6.10533092392742	30.7870784040128	31.3866096025916	-78.7833011123146
210843.7	6.85486845765101	30.3772908938972	31.141114681786	-77.2837559708982
179812.5	7.25636434720143	28.7542953443626	29.6557637617069	-75.8366937635158
153343.8	7.8645291837708	29.1675799725423	30.2092459478391	-74.9100491214507
130781.2	7.32608748280584	31.5017924441828	32.3424563847909	-76.9079529530719
111531.3	8.66152757285623	84.6311580445573	85.0732329928643	-84.1564420192719
95109.37	13.0842163466347	43.281789922117	45.2162587601828	-73.1797738759351
81109.37	11.9515688685721	29.1023077969901	31.460837838986	-67.6733056900508
69171.88	11.7201781138119	21.9733229687279	24.9036041027699	-61.9253357935189
59000	12.803179268909	17.7103882539311	21.8535866963939	-54.1361120785862
50312.5	11.275981395529	14.9363266780102	18.7147431471702	-52.9495050257143
42906.25	12.0367093122818	12.870955497125	17.6222548635906	-46.9183220910492
36593.75	12.531204190164	10.6635615171106	16.4542584969602	-40.396475289368
31203.13	13.0472882427522	8.72332684338955	15.6948450679215	-33.7664139489203
26609.38	13.6581007275703	7.03809439474659	15.364845856494	-27.2623001909983
22703.13	14.1875270659048	5.45073673060101	15.1985675361892	-21.0163841338741
19359.37	14.6232574057041	3.95133696293515	15.1476968859341	-15.1207400952252
16500	12.9864882134878	3.35188402977623	13.4120842029912	-14.4724956458141
14112.02	14.8327641518754	1.32095426153525	14.8914677767582	-5.08913661410911
12011.13	14.5067948071531	0.284202266048536	14.5095784399435	-1.12233665811863
10236.38	13.2722029651541	-0.263142623376495	13.2748113202592	1.13583153306734
8750.684	18.9325433155659	14.3592112080696	23.7619052879547	-37.1781598949622
7449.463	18.3057804980322	17.9700359309321	25.6519744074628	-44.4697239282002
6363.206	17.8555516452127	22.3532843683669	28.6092650483709	-51.382534210967
5414.761	17.4747349915247	27.6163670427737	32.6807296684945	-57.6757078270336
4620.567	17.168980417243	33.3743162147577	37.5315716613402	-62.7770375559809
3941.215	17.1411376825788	40.3237230472951	43.8157647593658	-66.9702291796458
3361.769	17.3430748411101	47.9073494630481	50.9499399167355	-70.0990944030757
2867.244	18.0628810110375	56.1035546321074	58.9396005481608	-72.1537210564148
2442.658	19.1551569539242	65.4630823752134	68.2080287942222	-73.6899927924991
2083.003	20.2980838852856	75.6708601974461	78.3459717690419	-74.9843617474792
1777.843	23.2195674250561	86.6743078266974	89.7306187911563	-75.0029255800414
1513.548	24.2800818365555	99.9639187143401	102.870342755903	-76.3478867083315
1292.065	26.7118837040186	114.51552243466	117.589666253035	-76.8699658512547
1101.762	28.2758837690303	131.999871942174	134.994413942467	-77.909311291622
939.101	32.3766243513271	151.444956780677	154.867106703418	-77.9326879696633
801.2801	33.4791335688104	176.306548421643	179.457101840166	-79.2480271799452
684.3433	35.4255255889963	202.777090263856	205.848284421155	-80.090332434567
582.9476	39.2245789266751	233.747679567106	237.015917809293	-80.4740995657456
497.0677	43.3777715023727	273.862832863371	277.276905429325	-80.9995591596601
423.5089	44.948288000071	316.707037166587	319.880752757922	-81.9223076887183
361.5036	59.0018540709076	369.29165975787	373.975331740647	-80.9225536319945
308.1262	52.8476840000681	430.369715993145	433.602317969117	-82.9993537520052
262.7298	57.4684347513764	502.157422579223	505.435157111356	-83.4712990878545
224.2111	65.2148054314397	583.593262779297	587.225737863086	-83.6238204529183
191.2854	69.9925561957453	681.657693187166	685.241686271394	-84.1374198204736
163.1722	80.8738126339139	794.80255798244	798.906552573814	-84.1899600502871
139.1537	90.4557650188123	926.077925625591	930.485126026277	-84.4212631121814
118.6706	110.709131732888	1080.99446200256	1086.64876511652	-84.1524886104855
101.1982	125.050127262516	1264.52725177572	1270.69536270966	-84.3523362894271
86.24196	135.65337292584	1492.0639891224	1498.21786974459	-84.805144834919
73.61024	165.25969770507	1725.21630610947	1733.11340383472	-84.5282916283118
62.69291	301.18029313483	2002.74364199907	2025.26335683547	-81.4477267470114
53.57697	352.700274794651	2333.98439469627	2360.48313667476	-81.4067602646596
45.65746	420.287924820602	2728.22263958593	2760.40589604124	-81.242321377457
38.96512	502.509622797752	3177.29219986186	3216.78436397396	-81.0127371889481
33.18414	602.251820721223	3713.00298650085	3761.52873620902	-80.786819930328
28.30617	712.592894631677	4335.56669371097	4393.73726901091	-80.666326906012
24.17237	839.689588969453	5036.34707250498	5105.8662771907	-80.5343747257934
20.61345	1031.61083462687	5898.19599849136	5987.73220432737	-80.0791597575619
17.55618	1202.98586896238	6897.28868793493	7001.41173233216	-80.1063179570511
14.98558	1403.36589137231	8053.53702524625	8174.89415479365	-80.1151988028757
12.76553	1657.75114204231	9343.89659363084	9489.81255881319	-79.9395299428886
10.8809	1927.2636842555	10902.6134924158	11071.6451475676	-79.9753398050842
9.278505	42869.35576045	57755.5546429219	71926.9473523488	-53.4151592849731
7.923394	49034.3275758674	67865.2289460381	83726.0687045297	-54.1509459559021
6.75822	56635.712258002	79443.764134876	97564.9299845442	-54.5148085332779
5.761429	71260.1773925582	128340.313903527	146796.624807503	-60.9590424720308
4.919708	80364.6044284697	148120.025493076	168517.095859779	-61.5173325476062
4.191257	91320.6169985953	171615.296302219	194399.75569404	-61.9814856574417
3.564097	105127.74932214	200116.735234669	226049.88696861	-62.2856116550971
3.051758	120763.772434344	231479.674991678	261087.588113313	-62.4487900351504
2.604164	139621.670281254	268767.751787303	302870.129284696	-62.5486565788417
2.214424	162486.681873785	312901.560899812	352575.252392863	-62.5575947204457
1.892567	189176.49899627	362655.452761443	409031.447678651	-62.451540232567
1.607507	222023.425804475	422900.401702025	477639.14346051	-62.300451261991
1.376413	259937.983885406	488743.559729362	553568.444407137	-61.9937469542575
1.17375	306295.403451288	567023.736691081	644463.18137385	-61.6229286692488
1.001604	361436.055735191	657206.088041616	750037.242104934	-61.1910330832792
