EC-Lab ASCII FILE
freq/Hz	Re(Z)/Ohm	-Im(Z)/Ohm	|Z|/Ohm	Phase(Z)/deg
6999984	2.5769759609458	0.900504419562242	2.72978264939604	-19.261574835571
5969734	4.42941176304632	0.498182501983599	4.45733938262455	-6.41717314208883
5091109	6.24232876626979	-1.6711558774248	6.46215369616437	14.9874013571423
4341796	2.9281325267499	-4.82521792578681	5.6441729354747	58.7489723688726
3702781	2.99180834427702	-5.41075785331213	6.18281632559665	61.0601695228713
3157797	0.500615006752726	-6.53461847716566	6.55376640010162	85.6191459744614
2693047	0.634637662423676	-7.24585785671565	7.27359753095361	84.9944500904302
2296687	3.00923062114987	-10.9622872559131	11.3678146893948	74.6499835782408
1958656	0.284938002005093	-8.92602418883858	8.93057094953721	88.1716156559897
1670375	-3.92671762987539	-8.5619718452144	9.41947308627283	114.637281058216
1424531	5.02683356624557	-11.4477046992741	12.5027596387564	66.2931076573602
1214875	-3.4025024889023	-6.43788303070805	7.28171415973361	117.857017387954
1036062	2.65022181784372	-13.1672292077422	13.4312918475102	78.6198935491433
883578.1	2.64126846579143	-7.66465580515114	8.10698758601623	70.9858611825997
753531.2	8.19986488558536	6.10155509663017	10.2208981375939	-36.6530956419264
642624.9	-0.291457464494498	-9.73679674306857	9.74115795321277	91.7145574779607
548046.8	5.66389155116623	-0.119501258056544	5.66515207686866	1.20869228404295
467390.6	5.13691439431016	-3.06649961428725	5.98258383801637	30.8352420831223
398593.7	8.15705237405467	0.551210985430161	8.17565514093702	-3.86587229446259
339937.5	3.81740871644862	-0.957699217114355	3.93570795396195	14.0835145986998
289906.2	4.3575873585503	-1.66841404714734	4.66606611827521	20.950625767727
247234.4	0.615777943685598	0.0591429848740261	0.618611646018302	-5.48619980388154
210843.7	0.0285704356573365	-0.0604271433907667	0.0668409264748648	64.6948418878427
179812.5	3.23802989719094	6.74058430180448	7.47798865637247	-64.3413842240266
153343.8	0.32884842015498	-0.0731880539189712	0.336894307869504	12.5471741076801
130781.2	1.70621511312849	-0.362134561030396	1.74422230594634	11.9828851639896
111531.3	1.75457535864179	-0.486457506433272	1.82076236635049	15.4960790172374
95109.37	1.73157725041517	-1.02161374681594	2.0104861158035	30.5401917369418
81109.37	1.22645060668884	-1.83336431612334	2.20576648951829	56.2189912808032
69171.88	0.758604822863515	-2.76350085845735	2.86573171667661	74.6499262824613
59000	2.61594678506319	-4.20831762717208	4.95510997188253	58.1343605420358
50312.5	0.799318246704703	-1.20728365500816	1.44791003973484	56.4922577716129
42906.25	0.519869060592453	-0.560046102682627	0.764143623470928	47.1306430611909
36593.75	0.311341838581583	-0.305920369524986	0.436487128036629	44.4967789952863
31203.13	0.184508858530485	-0.194461792172646	0.268065118005346	46.5044173798467
26609.38	0.110362228450018	-0.138232063142511	0.176883930160682	51.3967034572405
22703.13	0.0662232670189551	-0.104123029755725	0.123398243181073	57.5432399847993
19359.37	0.038942168016502	-0.0801582311976629	0.0891169707663105	64.0887671321534
16500	0.0267492416162399	-0.0730798533809879	0.0778215066497088	69.8959808647018
14112.02	0.0111580666132	-0.0484060829157796	0.0496754598750121	77.0195078357838
12011.13	0.00445812191071761	-0.0365127443222076	0.0367839006755636	83.0387732483102
10236.38	0.000418104379196315	-0.027360137218425	0.027363331666355	89.1245017650718
8750.684	-0.00142216688543144	-0.0201524343922402	0.0202025535659125	94.0366981258464
7449.463	-0.00235168167086752	-0.0147420035783514	0.0149283983127869	99.0636006372062
6363.206	-0.00233423153556379	-0.0111237127228205	0.0113659852895145	101.851154902077
5414.761	-0.00196168785972943	-0.00915501968949782	0.00936283102347269	102.094146302992
4620.567	0.033453144045074	-0.00715995778617696	0.0342107854630715	12.0807177075082
3941.215	0.0307537201539885	-0.00711219432215008	0.0315654021261549	13.0214685704894
3361.769	0.0376057344286137	-0.00808135523301719	0.0384642634703648	12.1282330974584
2867.244	0.0456834150827525	-0.0084281569426777	0.0464543673196984	10.4529904481652
2442.658	0.0517089605860769	-0.00927817766320931	0.0525347616882625	10.1723786384219
2083.003	0.0572545025774617	-0.00964938979032367	0.0580619392435197	9.5664471221813
1777.843	0.0610017278559536	-0.0101603229154589	0.0618420808443428	9.45626160859969
1513.548	0.0643356326081826	-0.0109034296363991	0.0652530336530873	9.61893578579324
1292.065	0.0673459785052885	-0.0111222271073877	0.0682582211653885	9.37778357940062
1101.762	0.069715384753876	-0.0106667867843569	0.0705266985735465	8.6990635048666
939.101	0.0706548807453962	-0.0112514277070095	0.0715451381897625	9.0480864753485
801.2801	0.072885711150878	-0.00966548048407798	0.0735237948079212	7.5540016217197
684.3433	0.0742498285061704	-0.0103648438881952	0.0749697740560979	7.94680429732754
582.9476	0.0761588269658331	-0.00919690363682644	0.0767121239525851	6.8856692720114
497.0677	0.0818008392432238	-0.00653917580194388	0.0820617945274442	4.5705169903529
423.5089	0.0887124288392213	-0.00476526392215542	0.0888403217621463	3.07473675460831
361.5036	0.0984364207027649	-0.00239532540255249	0.0984655599920898	1.39394500906921
308.1262	0.10868591493768	0.000805981371140676	0.108688903351774	-0.424880118838694
262.7298	0.117641689397498	0.00217171459516254	0.117661733068064	-1.05758383290192
224.2111	0.129640680538284	0.00402915729658083	0.129703277363951	-1.78014663791935
191.2854	0.140753790846049	0.00494620421444396	0.140840670879062	-2.01259275061495
163.1722	0.148102910363392	0.00368115212612285	0.148148651492623	-1.42381444484497
139.1537	0.160607887624908	0.00169527599773573	0.160616834510096	-0.604755806844994
118.6706	0.169485305119374	2.40490836342551E-05	0.169485306825594	-0.00812997317485291
101.1982	0.180409909046343	-0.00410697407017669	0.180456649969245	1.30409491355239
86.24196	0.193858615131841	-0.00792307792380335	0.194020457232277	2.34039852098535
73.61024	0.218935719535819	-0.0128229763850936	0.219310916308421	3.35196123786677
62.69291	0.226291159926274	-0.0173278102151914	0.226953612149338	4.37876921576103
53.57697	0.229853750591306	-0.0211534764316588	0.230825077116927	5.25812822395176
45.65746	0.22617122308367	-0.0239616048804938	0.22743698173255	6.04761536422945
38.96512	0.237743024223244	-0.029378159518218	0.239551292677564	7.04439004041854
33.18414	0.257418415746709	-0.035049963100098	0.259793650189653	7.75368314290075
28.30617	0.253633520297824	-0.0372718769303584	0.256357475858572	8.35987821972711
24.17237	0.24754483052948	-0.0380625272352992	0.250453985996244	8.74134779014726
20.61345	0.254673695454701	-0.0415242824985965	0.258036736131848	9.2605277666271
17.55618	0.259157267105146	-0.0442858033720809	0.262913905059657	9.69725911638762
14.98558	0.27093587010984	-0.048839076970228	0.275302562922105	10.2184387155725
12.76553	0.273761246618949	-0.0506500871571739	0.278407348105955	10.482079515424
10.8809	0.289200963788245	-0.0573427466662301	0.29483111784762	11.2151389072482
9.278505	0.305594969250629	-0.0625215154017375	0.311925031248572	11.5625518663258
7.923394	0.303744999673431	-0.0619930125087569	0.310006707066998	11.5353879372586
6.75822	0.306605776318236	-0.0647194192332179	0.313361939771877	11.9192238233727
5.761429	0.312493652596621	-0.065900268601943	0.31936676144362	11.9083433548431
4.919708	0.329764872453087	-0.0722791689587755	0.337593171390317	12.3628134779409
4.191257	0.349441780398149	-0.0788136636949146	0.358219418056647	12.7099170398091
3.564097	0.349988072692909	-0.0793143538177534	0.358862672548741	12.7687082391675
3.051758	0.344528055274013	-0.0765848040129103	0.35293740674033	12.5324548219232
2.604164	0.319210736208264	-0.0686045064739691	0.326499728053729	12.1294534975621
2.214424	0.359385155989071	-0.0821953739701155	0.368664847588397	12.8826065192615
1.892567	0.339728215489534	-0.0758842553113401	0.34810010141317	12.5913262353729
1.607507	0.293662769338878	-0.0624631011220143	0.300232345188786	12.0080551999297
1.376413	0.229802926312719	-0.138099212474709	0.268105907111394	31.0036057312215
1.17375	0.323026179264469	-0.214307916422013	0.387651641982006	33.5618164498571
1.001604	0.327894979289685	-0.213701084002783	0.391386344610217	33.0937500382808
