EC-Lab ASCII FILE
freq/Hz	Re(Z)/Ohm	-Im(Z)/Ohm	|Z|/Ohm	Phase(Z)/deg
6999984	4.63196814639178	-3.32596072889581	5.70238052740654	35.6800414184557
5969734	7.81756908091898	-6.8377811931275	10.3860309059827	41.1751650399964
5091109	122.956752159088	81.7619364866694	147.659666664806	-33.6225155986732
4341796	4.55688148565656	-6.38528172089983	7.84455170991797	54.4862981533922
3702781	0.323184527147342	-6.19345621275486	6.20188262529203	87.0129231068966
3157797	3.35737001899247	-11.941444744759	12.4044361434352	74.2965259144246
2693047	5.61683136232676	-7.42879603371701	9.31320594979983	52.9074728418635
2296687	88.7396162909639	150.205552938908	174.460389868734	-59.4259220038197
1958656	93.114518377883	173.638047140568	197.029147456753	-61.7972797263071
1670375	97.4005079443609	201.239973294188	223.571880609492	-64.1729346322581
1424531	100.86610186067	232.133597470718	253.100726153174	-66.5142120705012
1214875	105.444252237952	268.026473766815	288.022014731329	-68.5248355651742
1036062	106.620192952954	309.393449929824	327.249403979295	-70.9855174079226
883578.1	109.709907173117	359.783633627508	376.138972665884	-73.0418056388676
753531.2	113.363713742321	417.448599937843	432.567526732551	-74.8069740141066
642624.9	117.076936748455	485.050959518628	498.980402870036	-76.4300488561532
548046.8	565.877462390138	1154.73309650484	1285.93383445835	-63.8928155662186
467390.6	665.647953790817	1253.33110588807	1419.12862678917	-62.0270930979341
398593.7	764.220396892306	1352.64736575929	1553.60474739291	-60.5343661542798
339937.5	860.784936487274	1456.31680679479	1691.68831308737	-59.4139471859015
289906.2	947.684742116736	1570.47319088036	1834.25527495897	-58.8915815640807
247234.4	1027.90166806533	1703.3060295448	1989.43038820039	-58.8900918738133
210843.7	1094.53321220909	1860.13920557509	2158.26801318703	-59.5268198715422
179812.5	1154.96661260171	2049.64194566885	2352.65381679283	-60.5988812020115
153343.8	1209.66979255501	2278.24951112555	2579.48092490793	-62.0332810421215
130781.2	1253.95288295855	2563.25954962822	2853.54119497867	-63.9320058794056
111531.3	1295.18008391746	2892.77242162274	3169.48319652866	-65.8805207490865
95109.37	1342.37881228668	3308.3423866868	3570.30954165387	-67.914864696478
81109.37	1396.66084822311	3778.84094651796	4028.68470149254	-69.7156710465742
69171.88	1419.29947710015	4351.04765097305	4576.68293272921	-71.9338198546436
59000	6188.04474020681	8734.6225592495	10704.4630392819	-54.6843295561233
50312.5	6766.6617845345	9292.971892583	11495.522532822	-53.9398281971303
42906.25	7292.4616055308	9981.44923342946	12361.6068966648	-53.848080465396
36593.75	7645.66332076891	10641.9462865572	13103.708955121	-54.3047965830506
31203.13	8282.6880386825	11612.0098591905	14263.2988511099	-54.5002554052816
26609.38	8487.97193999275	12940.3207319836	15475.7089757048	-56.7378446713398
22703.13	8686.60160924899	14437.6879745196	16849.4475151975	-58.9662952605658
19359.37	9117.16722221742	16192.7615813383	18583.0101379712	-60.6187628375026
16500	9337.18606599109	18334.4401054369	20575.0999416963	-63.0116064773074
14112.02	9870.45153534395	20876.3451987017	23092.1545631179	-64.6949564794018
12011.13	10227.4409356582	23902.0084864505	25998.2029721042	-66.8343808864203
10236.38	10844.5837249941	27525.8543187209	29585.0917210654	-68.4966460416538
8750.684	11625.9024583806	31756.562899009	33817.7600548956	-69.8926004137106
7449.463	55366.6971872522	78101.1995608688	95735.4089680069	-54.6668027771702
6363.206	62532.4625263046	82302.6383319516	103363.596812435	-52.7729079740991
5414.761	69713.7316738317	86571.3902463216	111151.293258657	-51.1563934988068
4620.567	76490.3475390397	91087.3064505748	118943.981197301	-49.9782203846793
3941.215	83081.3928656075	96262.2809673658	127157.164869029	-49.2034038287459
3361.769	91916.5537514982	101642.195411993	137039.369313062	-47.8764908710024
2867.244	100452.622931671	107306.74957722	146987.985763057	-46.8895424209998
2442.658	108910.247516795	115549.418314268	158786.366187199	-46.6942268382177
2083.003	120369.216585789	123441.45127758	172413.863117186	-45.7219403781925
1777.843	132727.817702845	132796.784162378	187754.252884	-45.0148818111113
1513.548	150332.125689843	138048.579619188	204100.853377202	-42.5609665999234
1292.065	167112.024617358	145143.212770201	221343.581305102	-40.9755694624846
1101.762	195351.139288257	127931.84594642	233513.650197325	-33.2200471250615
939.101	0.00111947056304182	0.00160836242613016	0.00195960303003044	-55.1608757430674
801.2801	0.00401119624155485	0.00915314275598036	0.00999348375690977	-66.3354492384204
684.3433	0.000584179722965988	-0.000474047111535129	0.000752320817656548	39.0584584095549
582.9476	0.00122960937505481	-0.000652797491275287	0.00139215077482218	27.9637552308432
497.0677	0.000560897792857025	0.00114119069624589	0.00127158269067728	-63.8257795041883
423.5089	0.00120600879050466	0.000634045164006306	0.00136252356778674	-27.7326297858653
361.5036	0.000455304020910582	0.000122858943963736	0.000471588879819306	-15.100995969605
308.1262	0.00394726427768728	0.00341750506865309	0.00522113360987589	-40.8857124914743
262.7298	0.00481837150326833	-1.5003238300786E-05	0.00481839486143132	0.178404561571522
224.2111	0.00256042114973484	0.00307016957399134	0.0039977115550114	-50.172997387134
191.2854	0.00563112629767284	0.00222235902800619	0.0060537974057366	-21.5369793161079
163.1722	0.00228844315504284	-0.00492098857573556	0.00542707109188578	65.0598160033411
139.1537	0.00699457722361492	-0.0056915135981113	0.0090176181763589	39.1353779935512
118.6706	0.00910926192237455	0.0003013313605936	0.00911424453036564	-1.8946344915846
101.1982	0.00936562921768493	-0.00434838687812133	0.0103258645684016	24.9050658781609
86.24196	0.0158103120753193	-0.00931165198511905	0.0183486465607401	30.4964120318158
73.61024	0.0142321660192569	0.00808393840890151	0.0163677918424754	-29.5967823497912
62.69291	0.0296229606722059	-0.00364967518032929	0.0298469416843497	7.02368907528047
53.57697	0.0156211969546851	0.00243178189616819	0.0158093439929554	-8.84832474007613
45.65746	0.0165304795256767	-0.00888112423458094	0.0187651571008313	28.2472490182959
38.96512	0.0343729839367022	0.00477696777983702	0.0347033347948347	-7.91197419296154
33.18414	0.0104529870508806	-0.0243201771011379	0.0264714176521884	66.7416190193886
28.30617	0.0116569570607159	-0.0522373675594627	0.0535222123744691	77.4203491092574
24.17237	0.0175265459420777	-0.0221595836225358	0.0282529106285338	51.6586826794862
20.61345	0.0412047998072829	0.0269486371534537	0.0492347902563499	-33.1853659897223
17.55618	-0.0162897668955276	0.102518394339669	0.103804516681571	-99.0285929159237
14.98558	0.0596341231294776	-0.0339285850835642	0.0686103310529423	29.6375311081809
12.76553	0.0582283501125309	-0.0991230451891564	0.114960509934495	59.5685311990278
10.8809	0.0792167693999796	-0.0458547493037586	0.0915311673031656	30.0644706092226
9.278505	0.147162218225999	0.0280119271714191	0.149804494382022	-10.7771699686502
7.923394	0.122542898730598	0.114378035473907	0.167627852781595	-43.0262312478815
6.75822	0.313445848227824	0.0704684315804451	0.321269512435693	-12.6704860843482
5.761429	0.132740003016669	-0.130095977476058	0.185862507667136	44.4236466623158
4.919708	0.212931428233861	0.169632163881601	0.272240452822255	-38.5426359657545
4.191257	0.249754173926618	0.0738089959516049	0.260432170203974	-16.4638104627913
3.564097	0.445756618024265	0.24088071101947	0.506677885301575	-28.3861740948813
3.051758	0.241524252997829	-0.303946135559294	0.388223155037909	51.5283462402498
2.604164	-5.58842605691164E-06	-0.000129965982098239	0.000130086075383006	92.4621528090474
2.214424	5.97288527164267E-06	-1.32999947009089E-05	1.45796165077278E-05	65.8156619266777
1.892567	0.000141801614931849	-6.19290253995863E-05	0.000154734941704267	23.5923393554248
1.607507	0.00278022338393691	-0.00157432036357474	0.00319501591103326	29.5210029518072
1.376413	0.00493263226324164	-0.00323119886609002	0.00589673699231989	33.2274382806187
1.17375	0.00453063500255484	-0.00324773631525699	0.00557444568543045	35.6344339779633
1.001604	0.00667779149655548	-0.00418382848984621	0.00788018528360327	32.0683274723352
