EC-Lab ASCII FILE
freq/Hz	Re(Z)/Ohm	-Im(Z)/Ohm	|Z|/Ohm	Phase(Z)/deg
6999984	2.55711884262396	1.09616056054636	2.78216188418284	-23.2033697674664
5969734	3.96490527843871	1.05109653159624	4.10186272146263	-14.8475824663965
5091109	6.54550594727342	0.276004776362905	6.5513225185734	-2.41456446981827
4341796	11.7140535158025	-7.71235533707839	14.0249589880486	33.3603014637316
3702781	-1.2468604065318	-8.31871251909307	8.41163710871388	98.5243900562085
3157797	-3.44147087503207	-4.39860843093369	5.5849331161953	128.039623323019
2693047	0.677099241712706	0.508478655094356	0.846766748174777	-36.905311663343
2296687	0.817220872973934	0.633755348823435	1.03416429902922	-37.793602510602
1958656	0.968320751809354	0.643056962515578	1.16239723650067	-33.5879375957371
1670375	1.21075835553235	0.659851154902047	1.37889062006997	-28.5899408051416
1424531	1.57096586026006	0.585974572001009	1.67669315413835	-20.4556532580914
1214875	2.12533665330754	0.462659900349212	2.17511150824127	-12.2809951047962
1036062	2.77622838386385	0.101834772490282	2.77809545557014	-2.10072339978859
883578.1	3.88679098770968	-0.414706363636774	3.90885220367591	6.09020904671948
753531.2	5.10785097675786	-1.27646691944902	5.2649320410822	14.031008746354
642624.9	3.87556720102731	-1.41562407103905	4.12601655839914	20.0656752644135
548046.8	3.56305255175966	-2.03061693768472	4.10106676783165	29.6792195173546
467390.6	3.06857217921774	-2.49597439878342	3.95550545675915	39.1248814067444
398593.7	2.68597805320566	-3.1854185186606	4.1666976421776	49.8620646508724
339937.5	2.11680069189019	-4.22972288583364	4.72984152590038	63.4139374410483
289906.2	-11.414798980435	-2.93185942028067	11.7853059113469	165.59511603312
247234.4	-16.0905355522149	15.1753254593055	22.1177719753355	-136.676675605718
210843.7	-25.0975879746588	56.5107795221891	61.8333010953742	-113.946981506642
179812.5	-13.8981349470156	66.7544143061732	68.1858488571175	-101.760856753564
153343.8	-3.31521940821299	59.8791844651558	59.9708880369196	-93.1689535451207
130781.2	5.15658593904987	47.4080501862166	47.6876671793205	-83.7923273404663
111531.3	10.3562787410998	33.0405529875728	34.6255779892258	-72.596846615169
95109.37	3.62593464750524	103.780392227585	103.84371532731	-87.9989834723168
81109.37	11.7042835676113	83.7946253507513	84.6080935342703	-82.0484729952061
69171.88	16.4421702489956	60.882049931579	63.0632140504132	-74.8869016265274
59000	18.9898540146712	38.5379798678668	42.9626634159782	-63.7679107668801
50312.5	14.7749319980864	1.28627298564215	14.8308163545258	-4.97549960276963
42906.25	15.0943102589581	-0.747318608504477	15.1127987909687	2.8343970023692
36593.75	14.4342625844243	-2.31788596282005	14.6191836876328	9.12280017183356
31203.13	13.7302091627849	-3.46281895934376	14.1601468494862	14.1550541089999
26609.38	12.8885997463367	-4.32865713962151	13.5960757593384	18.5647091876652
22703.13	11.8820837408732	-4.90168379718618	12.8534204814408	22.4174836669311
19359.37	10.8965494674118	-5.26423953793894	12.1015291681899	25.7856848205431
16500	9.80406272783531	-5.3603154470285	11.1737472525103	28.6673817807315
14112.02	8.37629486743158	-5.57244382947922	10.0605390481257	33.6343758250324
12011.13	7.16936914333481	-5.39646422775926	8.97338732446597	36.9691849983442
10236.38	6.8606160587677	-4.74601308335463	8.34222349815651	34.6745749725145
8750.684	8.00419780333407	3.49775634401208	8.73507194686883	-23.6048584832484
7449.463	9.59687808535793	8.50850870779848	12.8255522070555	-41.5599176585827
6363.206	10.5624932468893	12.7426472113131	16.5511728147152	-50.3443633340797
5414.761	11.2466690698754	17.1970197691934	20.5481155853602	-56.8157382835879
4620.567	11.7956573356588	22.1445288187554	25.0901910830701	-61.9572495427077
3941.215	12.1046005895277	28.0724368415315	30.5709513370744	-66.6746975489173
3361.769	12.8126653170457	34.8573804673964	37.1376004283455	-69.8178867172255
2867.244	14.6878745038066	38.0382551656624	40.7755136508128	-68.8867157085789
2442.658	15.5143816384142	48.9144216289967	51.3158521406555	-72.4023274437221
2083.003	16.5977218293149	61.2812379900549	63.4891683637222	-74.8453048906009
1777.843	17.9969270719146	75.5528422460036	77.6667326175199	-76.6016497157949
1513.548	19.3078355588555	92.6127007919582	94.6039368205604	-78.2236932338103
1292.065	21.7067787701745	112.401786811228	114.478582813267	-79.0697227141005
1101.762	24.1740872683196	134.423540699187	136.579920886499	-79.8051713399304
939.101	28.2226761070416	160.229832052757	162.696399856597	-80.0104621179258
801.2801	29.5466722314897	190.753460258069	193.028206333639	-81.1951669509178
684.3433	38.6569978021849	226.944696034752	230.213506418247	-80.333209243923
582.9476	36.8718130819721	265.868639065119	268.413233351655	-82.1043363802313
497.0677	40.8291224916749	319.643540564845	322.240609278642	-82.7208389677921
423.5089	47.2868569100829	372.589091258413	375.577791890315	-82.7670193660797
361.5036	53.6931717727445	435.605721647157	438.902382571293	-82.9731122849882
308.1262	64.1960378931904	508.337216356356	512.374723043704	-82.8024281578188
262.7298	75.2322031751874	594.870599716978	599.608968246999	-82.7921722132859
224.2111	89.3828714287322	695.214357023067	700.93673032296	-82.6737418370324
191.2854	105.528248237075	812.014129072057	818.842571553676	-82.595418506438
163.1722	126.894082454262	950.024626414845	958.461735781129	-82.392075784946
139.1537	155.316782772646	1106.1798461896	1117.03050769748	-82.0074492170747
118.6706	186.343098986443	1288.60983201516	1302.01345987898	-81.7716197885989
101.1982	232.628565042785	1505.29413435123	1523.16331369492	-81.2149912906293
86.24196	306.68434686625	1760.16580198476	1786.68378262339	-80.1162301269069
73.61024	379.134262875238	2038.18816537438	2073.15069079846	-79.4625425784422
62.69291	483.717753725698	2361.22229339705	2410.26006565778	-78.4226241802797
53.57697	616.641329574234	2731.45771391797	2800.19780948794	-77.2784274634034
45.65746	795.820719999623	3147.21557367317	3246.27424681768	-75.809363676688
38.96512	1021.47014900019	3621.44450557859	3762.74654637857	-74.2482828680746
33.18414	1329.41104951908	4149.97166165893	4357.7056498983	-72.2375447818425
28.30617	1694.25704338534	4729.4551896259	5023.76883621651	-70.2906914897674
24.17237	2158.6176785153	5328.29604445362	5748.94503533812	-67.9459763047536
20.61345	2761.70173822244	5957.16666474604	6566.18848057702	-65.1278833894026
17.55618	3460.80507550316	6589.42651294517	7442.96402921129	-62.291283937269
14.98558	4351.2195628922	7238.09935303514	8445.30602932206	-58.9876092905446
12.76553	5386.12931242707	7788.44792781827	9469.44085437587	-55.3340636958016
10.8809	6504.55663130474	8202.40882047888	10468.4653807576	-51.5853841887551
9.278505	11134.1015068927	4999.90709805951	12205.2155800304	-24.1830588422047
7.923394	12459.5778313711	4650.0059337622	13299.008794644	-20.4659435800919
6.75822	13744.3271299266	4101.09378656834	14343.134193776	-16.6142863685265
5.761429	14939.1530469505	3451.70854813169	15332.7292306835	-13.0099521188073
4.919708	15909.5465535728	2602.25592501835	16120.9617405288	-9.28936473245604
4.191257	16745.4930288493	1741.75538370848	16835.8322810581	-5.93817469578151
3.564097	17460.4189088001	850.946967690798	17481.1423886601	-2.79014632593565
3.051758	17969.0004816538	-13.7955878286989	17969.0057773912	0.0439884680281801
2.604164	18440.9329810172	-819.751579986091	18459.144125968	2.54528364486177
2.214424	18742.7527340362	-1605.95631411162	18811.4293909861	4.89737680740354
1.892567	19052.2115785839	-2281.33289855976	19188.3101347977	6.82815003895822
1.607507	19167.6396232545	-2856.38174202594	19379.3014678841	8.4759021732411
1.376413	19317.607015144	-3380.81284284988	19611.2171032274	9.92691205983196
1.17375	19462.3450734057	-3898.41288689007	19848.9420068927	11.3267568153176
1.001604	20110.3273885434	-5005.16787938742	20723.8262194811	13.9761251191585
