EC-Lab ASCII FILE
freq/Hz	Re(Z)/Ohm	-Im(Z)/Ohm	|Z|/Ohm	Phase(Z)/deg
6999984	21.6906206297119	0.114173149999315	21.6909211148412	-0.30158561738339
5969734	13.577538741856	-1.44466950027658	13.6541798820592	6.07350159741346
5091109	11.3777225390633	-3.34578397549862	11.8594620698669	16.3867361801903
4341796	10.4329749964087	-5.20973377815251	11.6614018589067	26.535371447582
3702781	4.59647310949638	-5.43427369004112	7.11750627569772	49.774447944841
3157797	4.14498659880242	-5.36382955624608	6.77875957773328	52.304360277975
2693047	2.5182211687261	-4.14598275581226	4.8508360996959	58.7259967612879
2296687	2.13697735484387	-3.39048183235843	4.00774740604596	57.7772932441103
1958656	1.39862033721243	-2.81624074201261	3.14441580657456	63.5897781883739
1670375	1.33601860064675	-2.27083534309535	2.63469900685545	59.5300857309745
1424531	1.43218343043637	-2.73390209782099	3.08631982446514	62.3517309846552
1214875	0.608123539778812	-2.40414442878152	2.47986384184179	75.804894605886
1036062	1.07797062505778	-1.64078387261442	1.96320971501239	56.6956807071962
883578.1	0.766623805045826	-1.65896178988274	1.8275301033783	65.1978415361881
753531.2	0.946734193968998	-1.16390542124234	1.50032711887356	50.8746930692528
642624.9	4.38864906694278	-0.918863698654774	4.48380988998009	11.8253561477964
548046.8	44.621755079947	30.0297596657736	53.7855695516827	-33.9399514059095
467390.6	37.440701810717	19.6603374294741	42.2887103127987	-27.7042339975386
398593.7	-13.0827727444173	-32.6322144656799	35.1570812727136	111.846632821252
339937.5	28.2324871924937	-32.3765244148517	42.9571026287832	48.9114130771913
289906.2	37.3225295148771	2.21202497219365	37.3880230002401	-3.39182821420977
247234.4	31.0119964457544	25.9093801691558	40.4108884374166	-39.8775130368503
210843.7	26.899643000895	-30.7821098614262	40.8794457043697	48.8506795509075
179812.5	61.1958401345199	57.779759219711	84.163123903866	-43.3553496645605
153343.8	-1.09941049148393	9.61509729790814	9.67774764483065	-96.5229911820371
130781.2	2.19344608223556	1.32318384364591	2.56164423754746	-31.1002407929483
111531.3	0.730861628536403	0.754286339255513	1.05028881820877	-45.9036310246064
95109.37	0.112649086403891	0.477998176877474	0.491092734385085	-76.7391595866263
81109.37	0.524995717359835	0.31406147745294	0.611763937206249	-30.888590183427
69171.88	0.0643278477457339	-0.489323187949949	0.493533437834863	82.5106780485381
59000	0.221434298861989	0.229550298394774	0.318945901691228	-46.030993812886
50312.5	0.655670610265964	-0.134223234603849	0.669268127041817	11.5692554725288
42906.25	0.35418971309206	0.253993883975675	0.435847732536587	-35.6447815957434
36593.75	0.561422527642042	0.0444115808711372	0.563176387164317	-4.522989568289
31203.13	0.40108599991235	-0.3148906001622	0.509927513864667	38.1352801621503
26609.38	0.414208473476693	-0.277555659306102	0.498603854289893	33.825520275066
22703.13	0.549889494106597	-0.114950699225402	0.561775861871279	11.8072678702041
19359.37	0.334221828009299	-0.249964216707817	0.417356370446445	36.7927827523793
16500	0.353492139149927	0.110665000149868	0.370409819927822	-17.3833618873527
14112.02	0.54084975871386	-0.0368975131585286	0.542106897187376	3.9027495770306
12011.13	0.56603172983298	-0.0633447265625626	0.569565161821719	6.38541409150473
10236.38	0.459318070824148	-0.476360092029446	0.661734106317574	46.0434441857742
8750.684	0.334173104124014	-0.0395426665326808	0.336504511108535	6.74842296176577
7449.463	0.329000204927553	-0.0356078742446677	0.330921524761681	6.17710955550697
6363.206	0.329620210895594	-0.0325611204669442	0.331224561282703	5.64158882270999
5414.761	0.328993274851926	-0.0295829637009493	0.330320642163227	5.13819841714836
4620.567	0.326395888619231	-0.0273726361678314	0.32754165737859	4.79379577832641
3941.215	0.319652923672312	-0.031662971274375	0.321217271270053	5.65693549725257
3361.769	0.323241231032859	-0.0244654809459075	0.324165780423463	4.32835007570511
2867.244	0.322519966573888	-0.0224369928100141	0.323299470282861	3.97952764045151
2442.658	0.321348924039405	-0.0217571416064119	0.322084622719193	3.87333736157535
2083.003	0.318481611322397	-0.0207075158859942	0.319154097521369	3.72010667476116
1777.843	0.316227981076539	-0.0190947394298102	0.316803953715284	3.45548554412219
1513.548	0.314029758359886	-0.0180674531748875	0.31454907725154	3.29283715002943
1292.065	0.316027140504843	-0.015166880556531	0.316390878189438	2.7476500462708
1101.762	0.311759055693261	-0.0135818799222363	0.312054764855427	2.49453104336909
939.101	0.313472412844736	-0.0127482200557428	0.313731526514774	2.32880758478986
801.2801	0.311571964753562	-0.0144597700104207	0.311907316632921	2.6571381845006
684.3433	0.299533093786683	-0.0221428226943586	0.300350426785606	4.22786932125743
582.9476	0.302818136439203	-0.0117941444337873	0.303047728253219	2.23042557474574
497.0677	0.312707491261418	-8.47525818290518E-05	0.312707502746592	0.0155287777186055
423.5089	0.310533213316327	-0.0170658206575565	0.311001798720328	3.145611633866
361.5036	0.305205387070608	-0.0160123614962123	0.305625136429589	3.00322474628245
308.1262	0.30668322546002	-0.0117984080384097	0.306910089783314	2.20313903271043
262.7298	0.305355304189717	-0.0269567681405611	0.306542866733803	5.04499308078325
224.2111	0.302784214149688	-0.0133852526197742	0.303079932238906	2.53123987634532
191.2854	0.310846500371198	-0.0132679552885853	0.311129531595059	2.44408955795915
163.1722	0.302294134206748	-0.0085073598956798	0.30241382036574	1.61202993462986
139.1537	0.280945987151973	-0.0109553895518128	0.281159506787568	2.23309727694443
118.6706	0.301890822042482	-0.00464936845730296	0.30192662198047	0.882332659147458
101.1982	0.298605124974771	0.000261082650663601	0.298605239112359	-0.0500960262369361
86.24196	0.283891831594827	-0.0180161270394977	0.284462920043666	3.63119164636598
73.61024	0.29376499870555	-0.00182708615489135	0.293770680477629	0.35634938180823
62.69291	0.568735096131162	-0.387671801851444	0.688294294268133	34.279852888293
53.57697	0.341691290998577	-0.0128437855488915	0.341932597409928	2.15266947236853
45.65746	0.370987709295204	0.102191508486267	0.384805125816694	-15.4006414373025
38.96512	0.365271966870717	-0.00917158631599091	0.36538709306317	1.43833319537359
33.18414	0.302820951296485	-0.0888908834836338	0.315598031854778	16.3592170172902
28.30617	0.314799965208954	0.263794300138433	0.410714561320979	-39.962144632769
24.17237	0.854603468860034	0.0726726405906605	0.857687822974083	-4.86054937216371
20.61345	1.69646809426724	0.214032300673542	1.70991631976489	-7.19064324720364
17.55618	1.37470055405187	0.707930133529946	1.5462751007729	-27.2471282685833
14.98558	0.490239402081423	0.104975398759731	0.501352675965647	-12.086275398121
12.76553	0.906449526753822	0.223884909456993	0.933689025979632	-13.8738693414615
10.8809	2.04176843069008	-0.585462195658707	2.12404903594718	15.9998578881841
9.278505	3.11933149816313	0.436293142221717	3.14969533469229	-7.962165295815
7.923394	4.10709927832602	0.488196235949473	4.13601257817494	-6.77873815870614
6.75822	3.37853626969253	6.68710067518144	7.49211737532454	-63.1956405211034
5.761429	6.22413348529104	-7.77388615472021	9.95857136286485	51.3176180927786
4.919708	12.0792127690749	-2.26321255168015	12.2894065021328	10.6121409349187
4.191257	8.7027652187984	-2.14183155838742	8.96245306141302	13.8262450895302
3.564097	4.37888962793409	-11.2114500223041	12.0362488332641	68.6657258869969
3.051758	3.67408990268741	-7.72525647500454	8.55444470539317	64.5644939894505
2.604164	4.22456965615217	2.24711339271912	4.78502950664041	-28.009196513575
2.214424	1.54714822233252	3.31890103229218	3.66179896826912	-65.0068174072915
1.892567	-0.11408923959258	-2.47944046995125	2.48206393926968	92.6345558096022
1.607507	2.55993338118943	1.23492217174753	2.84223357351249	-25.7528486093041
1.376413	-0.365373754340378	-1.96244098375344	1.99616447094821	100.546759185682
1.17375	2.64022462442348	2.12531949217171	3.38936115089808	-38.8332573481787
1.001604	0.203708064350553	1.03182534048072	1.05174165494174	-78.8320025249007
