EC-Lab ASCII FILE
freq/Hz	Re(Z)/Ohm	-Im(Z)/Ohm	|Z|/Ohm	Phase(Z)/deg
6999984	22.8291434385615	2.50007819916939	22.9656304320255	-6.24970330815004
5969734	17.955757401383	-2.40288573880847	18.1158241250871	7.62218359934027
5091109	11.2010512821021	-6.21077293968143	12.8077027734314	29.0075468237007
4341796	8.80265156665393	-6.95764568562459	11.2203167553597	38.3229639471013
3702781	5.65109149940775	-6.16787795504401	8.36525872899317	47.5036729632887
3157797	4.09405548831593	-5.56807054710744	6.91120105039457	53.6739356731439
2693047	2.69924687704863	-5.0183081158778	5.69818831288874	61.7250870441207
2296687	2.2678239432133	-4.21933208908638	4.79017627185113	61.7426768484312
1958656	1.74536724420533	-3.5488903634245	3.9548615182775	63.8117420382076
1670375	1.27693833706439	-3.1233600000682	3.37430721877703	67.7635465427839
1424531	1.01637565081404	-2.67366367233811	2.86033160601148	69.1860288607552
1214875	0.847214140776596	-2.22974379278756	2.38527339770653	69.1951961854773
1036062	0.751708299492655	-1.97176797422547	2.11019769493461	69.1313686870997
883578.1	0.664778900545692	-1.70525010777498	1.83024832104207	68.7020514112082
753531.2	0.610184815831766	-1.4757318542656	1.59690638898021	67.5359104107785
642624.9	0.560971929800833	-1.27588979826978	1.39376622263326	66.2662932325481
548046.8	0.535937287991285	-1.1066580112423	1.22960185853235	64.1598138987496
467390.6	0.507255235947586	-0.960323523262109	1.08606129832841	62.1564096722952
398593.7	0.483026020341912	-0.83564004201081	0.965198640767367	59.9707475712096
339937.5	0.470125800235822	-0.725678685054345	0.864654741494878	57.0631013524797
289906.2	0.77281315202357	-0.0463540023203177	0.774202080513685	3.43253801146941
247234.4	0.334714338674488	-1.17720397661878	1.22386391853072	74.1279617310971
210843.7	0.214140621139488	-1.72460934919416	1.73785316207955	82.921947153883
179812.5	0.960020222711763	-1.13673782181545	1.48788833706071	49.8175802076584
153343.8	0.0259557890987122	-1.00983560391267	1.01016911946337	88.527651629884
130781.2	1.13318793668288	-0.741646799457708	1.35430974115579	33.203872526505
111531.3	1.05203352330265	-0.248237136833466	1.08092377633942	13.276629594973
95109.37	0.976547481438026	-0.196824974841794	0.996185250957082	11.3954028887523
81109.37	1.27895067325502	-0.222513149716761	1.2981629044216	9.86958763242912
69171.88	1.21783443285416	-0.270230220507991	1.24745544125672	12.5108886905145
59000	1.33672020624613	-0.169490271197536	1.34742267378033	7.22629268121668
50312.5	1.3074199225623	-0.104820233795515	1.31161508657294	4.5837901306349
42906.25	1.49004402152078	-0.214381433916894	1.50538718782846	8.18729760225575
36593.75	1.05325297294408	-0.269289257157582	1.08713316987204	14.3417982431669
31203.13	1.08666289433294	-0.213507790996546	1.10743930882747	11.1158911579756
26609.38	1.0810244487518	-0.156155741490121	1.09224469529473	8.21961242190113
22703.13	1.01394963182058	-0.171940440315637	1.02842470355638	9.62437315526903
19359.37	0.550787653121192	-0.252100859796629	0.605740771568952	24.5940300094961
16500	0.682696056448856	-0.133146794173315	0.695558749703755	11.0359119793533
14112.02	0.762065510503814	-0.141539360282945	0.775098208492797	10.5217224652691
12011.13	0.727380113496362	-0.13461206319358	0.739731192438992	10.484778146639
10236.38	0.644457244162208	-0.129151145124671	0.657270992696438	11.332131159436
8750.684	0.755649668305285	-0.117723379106174	0.764764810381639	8.85498250965555
7449.463	0.838144387378519	-0.126177750557899	0.847588838311338	8.56125569598174
6363.206	0.83546251957483	-0.125310880099775	0.844807929819378	8.5301956539077
5414.761	0.783497547208449	-0.0998065446268546	0.789828938968438	7.25957579953583
4620.567	0.741263580890867	-0.128103671966759	0.752251452060093	9.8048949677809
3941.215	0.745161440675726	-0.0840324745108984	0.749884677428702	6.4341097745129
3361.769	0.729411637942901	-0.0711422160659989	0.732872807841393	5.57064977217925
2867.244	0.723883645002123	-0.0454124682585086	0.725306710140537	3.58971695044985
2442.658	0.70120807183056	-0.0420057250282154	0.702465117237489	3.42819499138231
2083.003	0.672423039845746	-0.0292767885810104	0.673060082656082	2.49304020718615
1777.843	0.645052519697463	-0.0260410088949757	0.645577948285344	2.31179646785242
1513.548	0.624234168594267	-0.0269626344795874	0.624816197692294	2.47324738015336
1292.065	0.610201419176488	-0.0258896938197442	0.610750397634812	2.42949460404379
1101.762	0.596455373506281	-0.0216041071919435	0.596846504582274	2.07439369727115
939.101	0.587279050201163	-0.0229839659684575	0.587728632531051	2.24120462974553
801.2801	0.577045055292907	-0.0235993758497525	0.577527424784739	2.34191685914245
684.3433	0.580097791389528	-0.02352214824245	0.580574490511724	2.32199110590118
582.9476	0.57281003536256	-0.0197379043925814	0.573149999111811	1.97351874786041
497.0677	0.573406267692939	-0.0141122549420371	0.573579901643264	1.40983713943276
423.5089	0.551774347593306	-0.00192657872698	0.551777711010158	0.200053485381642
361.5036	0.540223802268925	-0.0217371386496069	0.540660947114333	2.30418357762852
308.1262	0.544265008245739	-0.0166609024626727	0.544519958194008	1.75337633085745
262.7298	0.547473055177465	-0.0155970331214245	0.547695183096892	1.63186573349729
224.2111	0.548947876273657	-0.0181265627454145	0.549247069306994	1.89125117580435
191.2854	0.519503571430195	-0.00809726943972047	0.519566671853678	0.892971339487447
163.1722	0.520815548774682	-0.013063678111125	0.52097936190531	1.43685553721995
139.1537	0.539675358297983	-0.0112264778287381	0.539792113835035	1.19171096091086
118.6706	0.551211707013045	0.00993136280643504	0.551301168070074	-1.03220524032439
101.1982	0.534197610622153	-0.0532925177005807	0.536849308127787	5.69708035812621
86.24196	0.502591199101243	-0.0213408071623615	0.503044077059224	2.43140771012173
73.61024	0.573535645294613	-0.0318966345782459	0.574421910899059	3.18317073621021
62.69291	0.576123628165326	-0.207765713927678	0.612441855864095	19.8306708951627
53.57697	0.468753793161241	-0.116534043199811	0.483022051077947	13.9609360080095
45.65746	0.606232448607754	-0.034244224628799	0.607198854301769	3.2330283776269
38.96512	0.54568088741412	-0.0548420991190805	0.54842983755887	5.7390775915515
33.18414	0.654791804139155	-0.0993739017718778	0.662289573465547	8.62959237220699
28.30617	0.547054664268674	-0.142640390338612	0.565345104032982	14.6140563282571
24.17237	0.447442438066232	0.413580124863005	0.609305551480005	-42.7478310552274
20.61345	0.68668957938396	-0.131754438315709	0.699215138888174	10.8612859025534
17.55618	0.50530647681796	-0.26775439067548	0.571862788822788	27.9184514579822
14.98558	0.636615865834352	0.204477013605115	0.668648345339229	-17.8066917542851
12.76553	0.874392472897376	0.191520843025518	0.895121461016768	-12.354562885691
10.8809	0.709756119903081	-0.234618414963984	0.747528962903839	18.2919239814034
9.278505	0.586580736382854	-0.100767579621927	0.595173139009409	9.74758772911191
7.923394	0.356642518747711	-0.830943424625398	0.904246018021034	66.7708971627198
6.75822	1.03875361247475	0.759341155449908	1.28670433969477	-36.1672446203893
5.761429	1.14894725335043	-0.63166180322046	1.31113554777117	28.8008694878411
4.919708	1.71830245131809	-0.357698940644661	1.75513869718153	11.7593170323296
4.191257	0.791363043362688	-0.619453475250801	1.00497665365945	38.0526940255602
3.564097	1.21066020542307	-0.470707510473628	1.29894714804388	21.2461975055011
3.051758	1.54889459214641	-0.47045355351883	1.61876527130986	16.8953737332398
2.604164	0.835057605727703	-1.64098381655066	1.84123575108264	63.029540056295
2.214424	0.677658592515716	0.365963330743626	0.770162533144368	-28.3708589330175
1.892567	0.460626482845344	-0.328939281801463	0.566019264522449	35.5311182283453
1.607507	0.613442564121026	-0.13001376896934	0.62706886352058	11.9662636583529
1.376413	0.562720054162043	-0.0571994431025658	0.565619691707578	5.80407392383114
1.17375	0.49579317833251	-0.0491083943042729	0.498219339319738	5.65670516821893
1.001604	0.483439372628593	-0.102188182703868	0.494121494869275	11.9353468557276
