EC-Lab ASCII FILE
freq/Hz	Re(Z)/Ohm	-Im(Z)/Ohm	|Z|/Ohm	Phase(Z)/deg
6999984	-15.1586806826928	30.1324176908167	33.7305232087154	-116.705544107079
5969734	-15.7364205399169	32.6041109058884	36.2030796945867	-115.764346337018
5091109	-15.7328726517835	37.0503204561705	40.2523232594364	-113.007789088864
4341796	-14.9285849627059	42.4971365296849	45.0429712853338	-109.355584215362
3702781	-13.8073558953827	48.9150014058978	50.8263754300928	-105.762909656773
3157797	-13.4261274363327	56.215688533291	57.7967519434149	-103.432461120858
2693047	-13.6418073065923	65.0358463270123	66.4511867016757	-101.846513943936
2296687	-13.6234989591918	76.157003215241	77.3659412313799	-100.14219368654
1958656	-13.7048765239518	88.8562195333095	89.9069040190377	-98.7680117106982
1670375	-13.3980341095588	103.994173124351	104.853685494685	-97.3412322092634
1424531	-13.1898441963282	121.426725947231	122.140991334553	-96.1993846193472
1214875	-12.6314391247434	141.918965658792	142.479984797948	-95.0861849191875
1036062	-12.247861764999	166.111316070258	166.562238951114	-94.2169506481945
883578.1	-11.3620793878025	193.730876634107	194.063776654568	-93.356482631467
753531.2	-10.3598384638066	226.610577061873	226.847261145713	-92.6175389630868
642624.9	-9.31227117448649	264.860532155531	265.024187364358	-92.0136414470189
548046.8	-8.03889631586663	310.065088854823	310.169281490812	-91.4851451767903
467390.6	-6.0763111935215	361.916764032592	361.967768793774	-90.9618628224973
398593.7	-3.65026600519049	423.224788882543	423.240530155823	-90.494157374332
339937.5	-0.728126467560091	495.097034530396	495.097569948535	-90.0842633676954
289906.2	-133.663571535702	488.226676438371	506.192886103447	-105.310903252195
247234.4	-141.758392634335	592.85222089524	609.564760876717	-103.447644502429
210843.7	-147.258859693742	714.13112622156	729.155975904179	-101.651479110474
179812.5	-150.060429252851	856.081427825237	869.133789180266	-99.9422314160393
153343.8	-149.801405659247	1019.03597563242	1029.98775758288	-98.3627586622021
130781.2	-147.277878975702	1207.7924609473	1216.73883901054	-96.9523084579286
111531.3	-139.287856239291	1429.27596441135	1436.04696627224	-95.5660943683891
95109.37	-131.331994759668	1680.65909290056	1685.78263112327	-94.4681926413594
81109.37	-122.53681350295	1975.41085195515	1979.20774672232	-93.5495694084261
69171.88	-105.956605938193	2312.41786544127	2314.84409556106	-92.6234977241562
59000	-94.4697547511354	2711.39432370103	2713.03957088003	-91.9954786849133
50312.5	-72.3542094831181	3168.89375501042	3169.7196661809	-91.3079866265358
42906.25	-39.9701603938869	3718.47020702126	3718.68502218548	-90.6158536100178
36593.75	-13.1809007320051	4341.98919077274	4342.00919724169	-90.1739312626334
31203.13	-949.40055728405	4716.43365505089	4811.04020360129	-101.381329510069
26609.38	-933.739479265382	5623.20613683692	5700.20321326347	-99.4280017949094
22703.13	-905.247708869378	6657.13180738413	6718.39841891643	-97.7436777645633
19359.37	-861.87756925335	7868.25052256618	7915.31422182626	-96.251180004027
16500	-797.208898744122	9260.24316124982	9294.49543728495	-94.9204282290561
14112.02	-712.613144614148	10847.1408424279	10870.5235361203	-93.7586990036489
12011.13	-595.069528879428	12741.1364506995	12755.0251195183	-92.6740326016867
10236.38	-468.815657722568	14933.7737012011	14941.1306493054	-91.7980947244907
8750.684	-302.349207637701	17402.9749260575	17405.6011479163	-90.9953235577329
7449.463	-81.1235174030245	20379.2385696621	20379.4000329814	-90.2280757742733
6363.206	143.312186532857	23757.0763444759	23757.5085987581	-89.6543731340088
5414.761	412.422700793848	27726.9702032908	27730.0373086353	-89.1478211473336
4620.567	724.440887966328	32202.9252206076	32211.0727446977	-88.7112846032234
3941.215	1285.78832877462	37890.4732072965	37912.2831216911	-88.0564511391684
3361.769	-7875.28894195989	40608.6200478043	41365.2051621443	-100.975217024881
2867.244	-7452.42546373805	48504.878326018	49074.0447356276	-98.7347801585806
2442.658	-6842.77916809823	57600.6853968904	58005.7116578609	-96.7748061329971
2083.003	-5890.62150134815	68023.2560451702	68277.8352370586	-94.9493053019307
1777.843	-4777.98422664272	80309.3814843612	80451.3883514182	-93.4047829735966
1513.548	-2565.19585208333	94203.3827800426	94238.3019634945	-91.5598015774958
1292.065	-552.953706117965	109806.377350992	109807.769601015	-90.2885228216595
1101.762	2644.41484717896	127655.22245755	127682.609428891	-88.8132710907567
939.101	7016.79719449364	149274.813258165	149439.637700741	-87.3087412165227
801.2801	11227.3031202607	173095.080096983	173458.810929671	-86.2888763411898
684.3433	17880.7254996085	200883.809573026	201678.023822537	-84.9134911539783
582.9476	26440.3583372799	233183.657739718	234677.887296348	-83.5309439943276
497.0677	37087.600222047	270312.547666475	272844.944091274	-82.1876444436434
423.5089	-34612.2086706555	281366.650787864	283487.560864036	-97.0129846884329
361.5036	-20622.4478050141	334097.222994653	334733.087349024	-93.5321514914542
308.1262	-1743.09524815323	392438.548444602	392442.419580695	-90.2544891286288
262.7298	24020.8611787296	455552.148093496	456185.00786892	-86.9816396112825
224.2111	52526.9618572845	524661.942647711	527284.776742916	-84.2828365088778
191.2854	86130.0896252467	599530.298445819	605685.538124683	-81.824675680428
163.1722	129112.317040677	672965.949017992	685239.490214406	-79.1394516777679
139.1537	180976.928524865	761193.697824089	782411.972215025	-76.626000422088
118.6706	228658.497831416	851882.890297865	882036.942204102	-74.975079831198
101.1982	320058.825909343	948424.267822956	1000972.64889605	-71.3523249883654
86.24196	347141.336277835	1051195.3612102	1107031.5238432	-71.7249767383184
73.61024	449200.924233598	1246049.00886061	1324545.05503392	-70.1757561560642
62.69291	222233.698858194	745923.989819418	778325.391784384	-73.4095872475621
53.57697	579910.145824597	1298132.48133039	1421774.84726496	-65.9284200207594
45.65746	683505.145202351	1840434.84455077	1963257.42085818	-69.6258885600771
38.96512	707968.299573829	1799146.87839723	1933429.23409365	-68.5202519028132
33.18414	836211.722113056	2046036.82867933	2210320.50809639	-67.770250148987
28.30617	791084.883479833	2024998.76556052	2174036.63570601	-68.6614287035334
24.17237	1051063.34333099	2478316.165599	2691985.35812575	-67.0180138597597
20.61345	1247405.31539092	3045383.36564467	3290954.24833145	-67.7257313283053
17.55618	1588591.52006958	3483015.05272961	3828187.15257993	-65.4824296730296
14.98558	1484482.96099395	3550041.20410225	3847919.2055324	-67.3073002505213
12.76553	1780609.66446115	4004612.8439319	4382635.60052131	-66.0281719728917
10.8809	2093354.62991441	4482412.18996644	4947135.80239555	-64.9667103616323
9.278505	2322104.87310932	4853641.89528618	5380521.41426788	-64.4323699218933
7.923394	2247263.28783607	5318074.7231426	5773396.83771903	-67.0924983731267
6.75822	1584726.13746937	6529227.0903437	6718791.80567881	-76.3573978077307
5.761429	3209338.61246779	5432861.20526042	6309979.01780191	-59.4285003138978
4.919708	3233318.45844205	7588518.77319075	8248634.15510535	-66.9221007248548
4.191257	4832880.21682577	8470588.05921237	9752312.20065565	-60.2931509225297
3.564097	5124824.19153817	10882800.4350024	12029096.7367572	-64.783764937647
3.051758	9020071.67930933	10380458.7283625	13751931.3738513	-49.0110790856543
2.604164	6446066.34886816	12660366.9754108	14206923.077362	-63.0169349848021
2.214424	6915197.70259241	14398860.2946237	15973325.7980306	-64.3468846188598
1.892567	6155281.48993452	13290219.0360106	14646412.9480726	-65.1490828278225
1.607507	9062582.95206285	15681475.3068325	18111849.0928402	-59.9756750082477
1.376413	3859085.50513462	19828806.4419576	20200844.1865324	-78.9867584253655
1.17375	12686601.449729	20550690.4892257	24151205.6827028	-58.3116336838493
1.001604	14719916.8065307	24560474.814693	28633771.5628653	-59.0643283393126
