EC-Lab ASCII FILE
freq/Hz	Re(Z)/Ohm	-Im(Z)/Ohm	|Z|/Ohm	Phase(Z)/deg
6999984	19.4918889110387	5.66161437331652	20.2974779377247	-16.1964683555833
5969734	0.124408170837649	-2.21120627981559	2.2147032769351	86.7797865800579
5091109	1.80022330936825	-1.06551928850687	2.09192144158737	30.6205146902412
4341796	-2.86624508203161	0.799081502142194	2.97554904468675	-164.422042243369
3702781	-0.0826779082270395	0.839013659409711	0.84307743249649	-95.6278592187042
3157797	20.359470708483	93.5032674853671	95.6941433838544	-77.7161099231039
2693047	21.9223596755663	102.984758031308	105.292213579695	-77.9828217767373
2296687	23.7064642851513	116.786708497766	119.168501419818	-78.5254701045057
1958656	27.3009381724404	132.075454526366	134.867590300419	-78.321038763203
1670375	31.4087040892788	150.733894270699	153.971470002004	-78.2295946991001
1424531	37.5058989234125	172.402017530915	176.43454339438	-77.7265950507548
1214875	44.750304150899	196.739536068992	201.76480063242	-77.1855510048128
1036062	54.0293919811525	224.866452612746	231.266289606794	-76.4894645795083
883578.1	64.5549321808116	257.049756315857	265.031915985435	-75.9024120226173
753531.2	78.3057945736958	293.79667179972	304.053090470086	-75.0758631073615
642624.9	95.3584114011195	335.4954741818	348.784231038927	-74.1331756470328
548046.8	116.084173829332	382.95115875495	400.158875205084	-73.1363436750642
467390.6	143.466000625568	435.139094674156	458.179577294034	-71.7525360082642
398593.7	175.754975012012	493.167162546799	523.54910128462	-70.3849430470665
339937.5	343.526693736557	598.162779621076	689.789315830263	-60.1311184580667
289906.2	398.121843709053	653.281187914589	765.034190687836	-58.6410844160495
247234.4	460.674678505732	712.792591303512	848.701618729183	-57.1255938591946
210843.7	530.898901854909	776.58334299301	940.710015150763	-55.6421545613994
179812.5	611.973122768708	842.603208302629	1041.38910577803	-54.00952278333
153343.8	704.711974313053	911.083679201335	1151.82135648166	-52.2784912335248
130781.2	812.930731490537	977.343065122645	1271.24184998177	-50.2471209370901
111531.3	936.613635287375	1037.45498331959	1397.69737218787	-47.9242984694281
95109.37	1070.43298180568	1097.00523413548	1532.72543276937	-45.7023967878006
81109.37	1213.62670687308	1136.91389218986	1662.96812413524	-43.1307444792913
69171.88	1370.13778505161	1168.16962558938	1800.52709620704	-40.4506713672094
59000	1524.98470863064	1180.82373395596	1928.71020431556	-37.7512781182757
50312.5	1664.0486498723	1205.54747364109	2054.84856384704	-35.9220702502749
42906.25	1890.72406513834	1167.04874928464	2221.90014935417	-31.6849442228793
36593.75	2028.46449193664	1115.27527719038	2314.84494922659	-28.8025482541808
31203.13	2159.88424523251	1060.79772067911	2406.32328605314	-26.1573338943547
26609.38	2280.50608242694	997.39880580694	2489.07861864815	-23.6225743382739
22703.13	2385.02276209253	934.899321969491	2561.71238001429	-21.4045630400752
19359.37	2477.72255514224	870.231378956934	2626.10199976731	-19.3524115644111
16500	2550.5101935514	809.407631405211	2675.86303109606	-17.606901371123
14112.02	2616.03769369595	757.840961029358	2723.59617730895	-16.1557940817069
12011.13	2674.9425985735	709.60035600595	2767.46284002277	-14.8570477291721
10236.38	2725.75005513049	667.199795827369	2806.21968680215	-13.7542242946822
8750.684	2764.28049485321	634.529951809349	2836.17258183791	-12.9280649907272
7449.463	2802.98246436409	613.786273141368	2869.39789583622	-12.3514517248635
6363.206	2837.35143694623	599.694020088167	2900.03380919436	-11.9342238584492
5414.761	2871.43949110383	593.111603065409	2932.05493208457	-11.6706288952213
4620.567	2902.26788137429	594.52551674785	2962.53598211416	-11.5768013266907
3941.215	2936.56885929392	605.616847370428	2998.36762775909	-11.652895851462
3361.769	2964.87346772532	634.367434528789	3031.97901074731	-12.0769705635281
2867.244	3003.07081092466	651.801243450389	3072.9918900627	-12.2458212257531
2442.658	3037.67516974351	684.450877765649	3113.83099107039	-12.6978677373775
2083.003	3078.43407427397	732.104758944822	3164.29039876568	-13.3774243302924
1777.843	3115.75987945913	782.699896716378	3212.56575882378	-14.1012992086607
1513.548	3154.42822382123	840.752139572027	3264.54921534887	-14.9241468165599
1292.065	3195.62403488197	913.060467025344	3323.50603862245	-15.9458107793695
1101.762	3257.49296253729	973.425428160042	3399.82609337133	-16.6375427254309
939.101	3307.51304653776	1074.80132145164	3477.76371158417	-18.0019615004436
801.2801	3364.51733994912	1190.48510307751	3568.92584841262	-19.4855784151554
684.3433	3422.9240999231	1321.47658341134	3669.15654535738	-21.1099080347733
582.9476	3492.78782738924	1469.84842074601	3789.46185983287	-22.822518991465
497.0677	3560.46606400233	1638.29997964343	3919.30420051977	-24.7088793995301
423.5089	3646.64289977809	1717.55882605195	4030.88237975892	-25.2203072570418
361.5036	3284.75152528523	2839.41710235851	4341.87540862583	-40.840912921473
308.1262	3647.3952943599	3991.5582904365	5407.03523377378	-47.5796414373451
262.7298	4210.92011946545	5118.56152509113	6628.08572203635	-50.5566728450654
224.2111	5173.80000542148	6417.38669153173	8243.2431994178	-51.1236833382828
191.2854	6878.11911865361	8214.821006305	10714.0938383056	-50.0611789438362
163.1722	8922.63696334029	10731.9007650568	13956.6165101214	-50.2594395296854
139.1537	9986.58898110559	12251.8238453054	15806.3008643368	-50.8161654304801
118.6706	10781.1839215913	14229.6420560911	17852.6367743159	-52.8503661384228
101.1982	11526.7396169796	16693.9337482502	20286.772788904	-55.3759010740021
86.24196	17350.0215257441	20747.7890723437	27046.1457204949	-50.0964616848604
73.61024	18674.5322819374	24496.6561305714	30802.9920223439	-52.6806445803492
62.69291	18730.5840107263	2409.77890469329	18884.9625827636	-7.33110385067996
53.57697	5395.38310464991	3598.28369566601	6485.19887130977	-33.7000768954001
45.65746	5447.34985357399	4174.19566079101	6862.76400889606	-37.4622266402101
38.96512	5508.55654216269	4889.74363037292	7365.71706957143	-41.5942893967126
33.18414	5675.69561988488	5703.25477021858	8046.15658209566	-45.1387667455745
28.30617	5864.33839670114	6627.04671303199	8849.19278622245	-48.494070619218
24.17237	6323.75609489071	7682.56357137673	9950.46100318534	-50.5411456888173
20.61345	6844.49269305477	8770.29246340461	11124.9768592538	-52.030887522359
17.55618	7768.38073380488	10054.465730156	12705.9049399967	-52.3092533375454
14.98558	11136.9844758188	11405.1182235127	15940.8012630147	-45.6814895578562
12.76553	12507.530375643	12422.0424618656	17627.9736504802	-44.8035234100655
10.8809	13996.1175998997	13353.8800834378	19344.7000791705	-43.6548175153415
9.278505	15640.3679786231	14202.3772503095	21126.4911915549	-42.241301986864
7.923394	17396.1701280783	14815.4094324395	22850.0129491399	-40.419301927926
6.75822	19300.5386414351	15357.8582714382	24665.2509116593	-38.5100289376336
5.761429	21205.8079652545	15707.4575172555	26389.5909994004	-36.5278986341124
4.919708	23147.94767241	16203.7060101442	28255.7528639358	-34.9922571516027
4.191257	25112.4904433605	16781.9791226515	30203.8408077678	-33.7537057450243
3.564097	27217.9074092313	16894.9317287949	32035.1869334039	-31.8290545675106
3.051758	29325.2305803691	17517.6137914206	34158.9803937001	-30.8522532000598
2.604164	31606.28213575	18146.0514771218	36444.9757120921	-29.8613398821149
2.214424	34064.2746389608	18972.4441141515	38991.3893358925	-29.1160650300985
1.892567	36364.1285393776	19712.4988224964	41363.4192766422	-28.461518044941
1.607507	39159.5887041112	20819.3080111732	44349.9376948746	-27.9974737970866
1.376413	41945.4793847681	22181.7102580074	47449.46270284	-27.8708902314084
1.17375	67469.3369391218	94133.2326695731	115815.270667683	-54.3692027688013
1.001604	108551.134000348	198685.307406179	226404.947101094	-61.3501434629871
