EC-Lab ASCII FILE
freq/Hz	Re(Z)/Ohm	-Im(Z)/Ohm	|Z|/Ohm	Phase(Z)/deg
6999984	8.10100101521221	90.6956370977404	91.0567120316426	-84.8958440538882
5969734	15.4829417988056	90.2504727476205	91.5689320562067	-80.2653710409795
5091109	15.4530953055033	88.898210895456	90.2313141594089	-80.1388619598146
4341796	15.8578820928536	92.4709665639488	93.8208509966829	-80.2689806750888
3702781	17.4547561588679	99.6143535525981	101.132032246304	-80.0613407701334
3157797	17.8369200117219	108.696802825332	110.15058175041	-80.6809373297878
2693047	17.1949910564522	121.586399660392	122.79625523528	-81.9504972122387
2296687	17.5339760919038	138.917909196375	140.02009074802	-82.8062669750461
1958656	19.1905037391618	158.348620239563	159.507244241559	-83.0899383794154
1670375	20.2514173312794	181.762434820071	182.887130809268	-83.6424988770396
1424531	22.1769281889772	209.600861945559	210.770817411283	-83.9602612702191
1214875	24.4168524854504	241.817107495757	243.046695437133	-84.2342496878507
1036062	26.0275515108327	279.393234582391	280.602945401612	-84.677833612841
883578.1	28.5809335514475	324.425059647226	325.681576220975	-84.9654011302171
753531.2	31.3527085964264	376.732807234548	378.035184054547	-85.2426554072809
642624.9	34.5720528016956	438.100476940876	439.462461116699	-85.4879386393764
548046.8	38.6086337021278	510.574890089782	512.032562427955	-85.6756396130613
467390.6	138.658090995265	707.822254478287	721.2755438341	-78.916456503903
398593.7	161.786131875242	803.901534972938	820.019774395105	-78.6211540562925
339937.5	186.107987784518	913.35455487649	932.122699021343	-78.4828993403275
289906.2	208.695715618829	1039.12395835542	1059.87381444486	-78.6439004807592
247234.4	231.286724485034	1185.45440125103	1207.80614602197	-78.9600585921124
210843.7	252.243202766036	1358.48234143251	1381.70217678255	-79.4811064110044
179812.5	272.94037471992	1556.66440790419	1580.41150558579	-80.0550382343869
153343.8	293.073321725924	1798.76249793049	1822.48141166614	-80.7460826310942
130781.2	314.925706192262	2075.79213949754	2099.54547624491	-81.3732422336444
111531.3	340.639228873597	2403.60992585134	2427.62759909725	-81.9337668446209
95109.37	364.600357708818	2786.04117250858	2809.79693852676	-82.5442533753328
81109.37	396.051201462875	3231.42106688352	3255.60112201707	-83.0125317812932
69171.88	423.04994306521	3751.34794381036	3775.12683890988	-83.5657798282715
59000	451.864071327246	4347.85279656622	4371.270419405	-84.0666595327749
50312.5	1323.09637313825	5695.10436889308	5846.77670047323	-76.9209590950213
42906.25	1688.99829017456	6768.57239230797	6976.12266621841	-75.988814058123
36593.75	1825.69460817482	7524.99546714433	7743.30146532222	-76.3625544278868
31203.13	1973.20144825248	8591.60611816328	8815.28329919387	-77.0654017551738
26609.38	2063.01618519738	9831.99453398323	10046.1013481182	-78.1497243824589
22703.13	2179.54737308538	11310.283640184	11518.3741375654	-79.0925264343467
19359.37	2325.30885158355	13051.1801318785	13256.7101533522	-79.897704023844
16500	2472.29050040262	15103.4670879391	15304.4744566692	-80.7036837542545
14112.02	2608.55553809101	17465.6815149666	17659.4052215116	-81.5054808927606
12011.13	2832.65724138474	20294.2469834082	20490.9835701155	-82.0540306858189
10236.38	3025.65075562856	23601.616142927	23794.7651186791	-82.6947120923342
8750.684	3271.04183281523	27350.3720401848	27545.2820898344	-83.1799500490305
7449.463	3556.70086248762	31893.7462952053	32091.4501661758	-83.6368265948678
6363.206	3949.35534521831	37043.3074031687	37253.2418858877	-83.9144246466087
5414.761	13551.5893239134	49814.2845267211	51624.6890171082	-74.7814200964438
4620.567	15215.9413185873	56060.1799117495	58088.4553241728	-74.8145370570024
3941.215	16251.1023890778	63704.4444110836	65744.6162555166	-75.688985243931
3361.769	18023.6380700764	73331.9745175814	75514.4358114945	-76.1914692302608
2867.244	18398.9071108328	83651.7175939716	85651.2092109307	-77.5955023072289
2442.658	18816.6182872615	96304.7335126881	98125.7704210182	-78.9444741400849
2083.003	19995.0504198745	111632.636147952	113409.203747467	-79.8451637940305
1777.843	22883.5609390288	126696.739325739	128746.732451836	-79.761798434839
1513.548	24572.0097548925	150434.601722486	152428.189842947	-80.7232216150685
1292.065	27593.5314048768	173075.168573526	175260.996665391	-80.9415185350133
1101.762	26418.5105553017	202130.88666014	203850.025857185	-82.5536498831729
939.101	26120.6533348171	230910.687659446	232383.377645639	-83.5461273758986
801.2801	28164.4972770602	269138.559483116	270608.209608497	-84.0259222335411
684.3433	102744.230270249	382785.251450501	396334.36083924	-74.9752517185366
582.9476	116007.18334513	428903.693495109	444315.253937356	-74.8651292303124
497.0677	134359.312543433	478441.738701495	496949.617364631	-74.3138292398375
423.5089	159377.36366037	557100.117591135	579449.467225043	-74.0350279767269
361.5036	153181.996325518	619366.004050625	638027.406129165	-76.1083330541873
308.1262	160996.924794585	723500.835838795	741197.321401493	-77.4546692811857
262.7298	175500.985174111	834531.680920056	852785.859554635	-78.123826690119
224.2111	205521.317063216	955833.255531027	977678.998519678	-77.8651362456174
191.2854	197535.414915836	1114190.05120853	1131565.15957237	-79.9464627322097
163.1722	241985.705357403	1221774.36996403	1245507.80515352	-78.7969375078387
139.1537	216720.352223412	1523994.81692037	1539327.09749032	-81.9064940535727
118.6706	187080.166350951	1726702.94546373	1736808.006233	-83.8163915678618
101.1982	339628.86607623	1983764.48249728	2012627.45899233	-80.2849089017934
86.24196	311724.856974203	2223037.95792228	2244787.32819367	-82.0177624573871
73.61024	235490.692644083	2632035.92971378	2642549.7160179	-84.8873069827408
62.69291	241690.500134096	3009193.50710574	3018883.87671047	-85.4080110269557
53.57697	443913.246207076	3817450.64411823	3843174.2597021	-83.3671353606997
45.65746	129942.103770079	4418476.80018744	4420387.10794958	-88.315485358347
38.96512	425612.916316977	4888318.67004175	4906812.1804706	-85.0239574168795
33.18414	236794.02985833	5895545.74267196	5900299.23109956	-87.699956799038
28.30617	664678.307989346	6293262.73027549	6328266.19583801	-83.9709182852085
24.17237	748151.230623534	7531970.07451105	7569035.83471591	-84.327412625339
20.61345	379427.749584439	9907756.27699636	9915018.90373969	-87.8068707236094
17.55618	1004630.16278256	11500477.444689	11544274.0447277	-85.0075708239388
14.98558	1005426.25433276	12215795.564083	12257101.7461866	-85.2948518624173
12.76553	1202055.07687273	14250881.9669683	14301488.497506	-85.1785414300058
10.8809	819469.39782208	16166716.6027828	16187472.1871162	-87.0982365225916
9.278505	621776.987854289	18811311.8013918	18821584.904354	-88.1068714251399
7.923394	1152908.60930283	21802135.8335637	21832597.7649607	-86.972987948576
6.75822	3493291.72635637	27608815.8289772	27828938.1501309	-82.7887917622946
5.761429	8092262.72606219	31221980.1210735	32253631.7134726	-75.4695424083959
4.919708	2259099.76381367	35602567.2338648	35674168.8814852	-86.3692623198467
4.191257	6518308.98960232	42041377.8431448	42543692.8702011	-81.1867444713293
3.564097	1307582.82691425	45463346.43935	45482146.4127805	-88.352555727692
3.051758	7178958.36940905	52905065.7775239	53389918.7880431	-82.2724421973227
2.604164	6306943.95792826	68369687.92015	68659972.0971918	-84.7295144059618
2.214424	5305403.02953079	74942229.8772931	75129788.5015444	-85.9506020589446
1.892567	-4546204.45056464	108012790.328924	108108421.732751	-92.4101282412495
1.607507	-6834430.92124633	102696707.938051	102923871.222038	-93.807400416235
1.376413	35372941.3019069	132774951.64766	137406087.060896	-75.082165643108
1.17375	15432015.5476895	145040306.996357	145858965.296829	-83.9266859434244
1.001604	30701457.0796465	171122657.418869	173854949.164264	-79.8286626095308
