EC-Lab ASCII FILE
freq/Hz	Re(Z)/Ohm	-Im(Z)/Ohm	|Z|/Ohm	Phase(Z)/deg
6999984	9.02766147134133	-4.16738420960053	9.94312640931254	24.7791755914147
5969734	4.91880143944281	-2.93275878253287	5.72675140696611	30.8048524016686
5091109	2.80965954924143	0.253901769437505	2.82110845079856	-5.16364805649248
4341796	1.85001195867249	-0.137075167738062	1.85508324579832	4.23754199475483
3702781	1.19334164973767	-0.210543929646876	1.21177268466894	10.0058484552671
3157797	0.912360549254563	-0.11186973546949	0.919193455998302	6.99046898231878
2693047	0.781706668283884	-0.0260047179935672	0.78213909287122	1.90533275953528
2296687	0.706753188578874	0.0441393728855821	0.708130181396851	-3.57369361275122
1958656	0.682498220315205	0.0881145727006783	0.688162770466149	-7.35653171762786
1670375	0.664258677498243	0.108340922530238	0.673035917411855	-9.26340401475866
1424531	0.65799509465127	0.112723181514997	0.667580751846544	-9.72115145644458
1214875	0.656712703847838	0.106491835251143	0.665290978723065	-9.21084659621131
1036062	0.659251758465238	0.0908293180918725	0.665479410699191	-7.84461727456596
883578.1	0.653463600934781	0.0805909691316718	0.658414445506956	-7.03072499700467
753531.2	0.649065973996086	0.0702049043774743	0.652851719150787	-6.17328219743549
642624.9	0.642925778041069	0.0610306530719446	0.645815992898986	-5.42263529313193
548046.8	0.63820356565433	0.0518020604802507	0.64030246343732	-4.64044247854405
467390.6	0.634000203082547	0.0442373098564253	0.63554165645695	-3.99133916539814
398593.7	0.629947155565957	0.0374771689139853	0.631060977240272	-3.40465960403172
339937.5	0.626719434761717	0.032481251103588	0.627560580009054	-2.96683791558707
289906.2	0.624447752948836	0.0283544856519506	0.625091171765717	-2.59986073963696
247234.4	0.623143743294176	0.024955279683131	0.623643239994423	-2.29332087079063
210843.7	0.622333083219442	0.0222640785329164	0.622731206591044	-2.04889306468326
179812.5	0.622204558892537	0.0202500416472865	0.622533996897658	-1.86406948504555
153343.8	0.621706990344674	0.0179381321194566	0.621965721263935	-1.65269847892825
130781.2	0.621464952982468	0.0173022990730279	0.621705764279787	-1.59476843513595
111531.3	0.62281663711717	0.0157662950638467	0.623016163137025	-1.45010461327455
95109.37	0.622904731429203	0.0140380452526907	0.623062895020562	-1.29102345441427
81109.37	0.622804907744525	0.0125772863916866	0.62293189133616	-1.15690721260344
69171.88	0.624047543079773	0.0113150157392474	0.624150114639964	-1.03875357496494
59000	0.625679625135321	0.0101882472752951	0.625762569743524	-0.932892746820982
50312.5	0.628189255572256	0.00916198575812566	0.628256064673838	-0.835585605600529
42906.25	0.629829667342827	0.00838726979392407	0.629885510358646	-0.762947162249433
36593.75	0.629700837674303	0.0075241747916404	0.629745788532178	-0.684583724609391
31203.13	0.630145587875663	0.0071249564748857	0.630185866966194	-0.647806709655533
26609.38	0.630606978896082	0.00644373483751066	0.630639900062706	-0.5854454102757
22703.13	0.630619863656177	0.00605358546276626	0.630648918444082	-0.549989406814296
19359.37	0.630213007887522	0.00555168305524637	0.630237460403128	-0.504717891477168
16500	0.629159425898187	0.00529831703446525	0.629181734763441	-0.482491426209555
14112.02	0.627675570872769	0.0046978370257023	0.627693151104245	-0.428822183060753
12011.13	0.625571690858062	0.00449274044816947	0.625587823666469	-0.411480641362867
10236.38	0.623678268709321	0.00416230345600294	0.623692157743158	-0.382374843736458
8750.684	0.622939401601886	0.00373338531730619	0.62295058891861	-0.343379565382972
7449.463	0.621805369497729	0.00340151822748793	0.621814673244737	-0.313427165318477
6363.206	0.619782243814626	0.00312814873771642	0.619790137919617	-0.289179304949643
5414.761	0.615996738543802	0.00285807351237589	0.616003368887543	-0.265836431418218
4620.567	0.61166110221034	0.00254064502997699	0.611666378701933	-0.237987015644971
3941.215	0.608297941466485	0.00226238787724162	0.608302148599913	-0.213094062094599
3361.769	0.607337350648981	0.0020592738501017	0.607340841786647	-0.194269705622915
2867.244	0.607525314674672	0.00187171183064281	0.60752819792643	-0.17652079093269
2442.658	0.604530848978991	0.00160688486640539	0.604532984580852	-0.152295791579882
2083.003	0.599604539449491	0.00135246729481361	0.599606064759372	-0.129236073790811
1777.843	0.594339378070162	0.0011710985242737	0.594340531847342	-0.112896635276609
1513.548	0.591107859747083	0.00101638200219862	0.591108733556823	-0.0985172853795489
1292.065	0.589250840727978	0.000903014067551626	0.589251532652258	-0.0878044643008699
1101.762	0.587518746854986	0.000831524650418735	0.58751933528974	-0.0810915761815581
939.101	0.586036231094228	0.00067936339125599	0.586036624870617	-0.0664201896963202
801.2801	0.584078942008329	0.000656045920660264	0.58407931044835	-0.0643554216900072
684.3433	0.581768202038066	0.000544647070252626	0.581768456985282	-0.0536398676026454
582.9476	0.580187421576949	0.000450664093451706	0.580187596604955	-0.0445048347818858
497.0677	0.578665772267384	0.000389515729852072	0.578665903364205	-0.0385673476354585
423.5089	0.576208600254384	0.000320137382539776	0.576208689187399	-0.031833122567856
361.5036	0.575142320737167	0.000292452590992825	0.575142395091383	-0.0291341762260025
308.1262	0.574520631077065	0.000161889864011233	0.574520653885931	-0.0161449479906451
262.7298	0.575010611556823	0.000146707750607482	0.575010630272272	-0.0146183993483442
224.2111	0.575782785668106	0.000248045569640348	0.575782839096763	-0.0246828556564753
191.2854	0.576906531444603	0.000211425984303673	0.576906570186533	-0.0209978833266693
163.1722	0.577637172481124	9.45013844973022E-05	0.577637180211333	-0.00937358379876232
139.1537	0.578750596383777	0.000137543380698498	0.578750612727762	-0.0136166685872272
118.6706	0.57993835537618	4.10725334583275E-05	0.579938356830604	-0.0040578154476626
101.1982	0.581022361622925	5.86075515089673E-05	0.581022364578788	-0.00577940809075076
86.24196	0.581217438933451	0.0001184314243529	0.581217450999505	-0.0116748401350155
73.61024	0.581005470926668	6.89149765478571E-05	0.581005475013785	-0.00679604148411909
62.69291	0.58161311415524	0.000123194965230329	0.581613127202573	-0.012136162833343
53.57697	0.582664405188434	-3.48545302817098E-05	0.582664406230919	0.00342738883976456
45.65746	0.582719097446305	6.05808761146081E-05	0.582719100595372	-0.00595660674805087
38.96512	0.582522774283753	4.42276922088131E-05	0.582522775962734	-0.00435014768206307
33.18414	0.581472749549528	-3.42495067173771E-05	0.581472750558198	0.00337479647079171
28.30617	0.580489761902564	3.73012737088088E-05	0.580489763101022	-0.00368172824276991
24.17237	0.580647553622023	3.55506690977285E-05	0.580647554710334	-0.00350798566689003
20.61345	0.580600873791778	1.38841293259614E-05	0.580600873957786	-0.00137013574789255
17.55618	0.580228706092647	1.06761791818742E-05	0.580228706190868	-0.00105423947825174
14.98558	0.579117118419624	-1.07161337309106E-05	0.579117118518771	0.00106021600101275
12.76553	0.577986586160804	-7.98567075007682E-06	0.577986586215971	0.00079161911623337
10.8809	0.576827653776162	1.36116790259564E-05	0.576827653936763	-0.00135203601114437
9.278505	0.575115857159656	-5.85906758014541E-05	0.575115860144156	0.00583708202240863
7.923394	0.573422792785767	-4.32154985138315E-05	0.573422794414216	0.00431804542975968
6.75822	0.571803864720136	-3.4354822462519E-06	0.571803864730457	0.000344241523089967
5.761429	0.570536994427578	-9.97457846081867E-07	0.57053699442845	0.000100169008111352
4.919708	0.56924031942752	7.96389981687826E-05	0.569240324998428	-0.00801590873699827
4.191257	0.567675522585856	-3.08043843251209E-05	0.567675523421641	0.00310910219020247
3.564097	0.566278862050197	-8.25594941407339E-06	0.56627886211038	0.000835332358255081
3.051758	0.565339003434579	-1.64204635746361E-05	0.565339003673048	0.00166417539652251
2.604164	0.566783722706045	2.39183241088721E-06	0.566783722711091	-0.000241788705207223
2.214424	0.571675072193691	-0.000129292266064545	0.571675086814312	0.0129582369482188
1.892567	0.577471255044775	4.72930422111712E-05	0.577471256981349	-0.00469234042266921
1.607507	0.58111955976923	-5.69647099244857E-05	0.581119562561236	0.00561646462339351
1.376413	0.586010587017447	-9.81416551698235E-05	0.586010595235544	0.00959556483732985
1.17375	0.587991805026112	-2.48133070915117E-06	0.587991805031348	0.000241788705207223
1.001604	0.59236019569706	-5.58987038582876E-05	0.59236019833453	0.00540677754023609
