EC-Lab ASCII FILE
freq/Hz	Re(Z)/Ohm	-Im(Z)/Ohm	|Z|/Ohm	Phase(Z)/deg
6999984	2.22435758080793	2.59956478088974	3.4213306910236	-49.4475411452511
5969734	7.01600592072102	7.83309985946751	10.5157877730573	-48.1496083927854
5091109	15.8690097935281	-5.7015281992231	16.8621735145154	19.7627009119263
4341796	5.82671713345893	-9.71536063037657	11.3286744472429	59.0470823096792
3702781	2.60818788965988	-7.82968466823448	8.25267266234124	71.576294190482
3157797	0.559368586977421	-8.74720256613634	8.76506964884588	86.3410155005467
2693047	0.723768545878534	-11.0667412022103	11.0903833001706	86.2581658033708
2296687	1.55724315643933	-12.1889399833662	12.2880130275964	82.7194065733043
1958656	-0.643777835197903	-10.7309735407193	10.7502671144819	93.4332016802351
1670375	-4.86019875140082	-13.061943289355	13.9368538199066	110.409654671064
1424531	10.9553500843914	-11.0551007350073	15.5638988602706	45.2596608403471
1214875	25.7276313536732	16.1294677632737	30.365617816817	-32.0849031413483
1036062	4.90302506817927	-13.3673563333979	14.238183527516	69.8574208050895
883578.1	2.42273046061959	-23.7940082699864	23.9170326846162	84.1861212330597
753531.2	23.5111603227757	1.62413561802077	23.5671906732428	-3.95167730794579
642624.9	13.0268057343084	-5.40132917623798	14.1021992791724	22.520455641872
548046.8	11.8026422610522	-8.13744874024704	14.3359839684105	34.5847065423482
467390.6	12.217721930367	0.0155474871689107	12.2177318227292	-0.0729108847826802
398593.7	11.7914768562781	-12.2354693417693	16.9925170726858	46.0586447560791
339937.5	-4.45930179791115	9.57409057141241	10.5616562524285	-114.97458131221
289906.2	2.9821980316685	5.89583422606882	6.60714509613433	-63.1690552794094
247234.4	3.41719220582508	-7.33177129243249	8.08900938657441	65.0107135202984
210843.7	8.79561768107035	3.1401769449906	9.33935766728139	-19.6473816965003
179812.5	7.51214653166871	-0.438016540141953	7.52490558098241	3.33701105011842
153343.8	9.6906507891001	-0.384310481828475	9.69826826102113	2.2710379691802
130781.2	10.0924644586962	-5.90943739086947	11.6952678091035	30.3502390391221
111531.3	10.2559908053887	2.03812498969875	10.4565434477103	-11.2396901487696
95109.37	13.7596474602051	-6.0975073953982	15.0501659348349	23.9002468745281
81109.37	14.6089742498842	-2.51308145586424	14.8235524432435	9.76066835557475
69171.88	30.7861770938329	-11.8838584353415	33.000224110816	21.1072265922921
59000	6.08253932243277	-76.8267734432692	77.0671810974837	85.4732136240416
50312.5	182.608612603528	158.653667341293	241.90264892685	-40.984702409739
42906.25	-86.3765133817415	-307.825931953816	319.715039444849	105.674215790087
36593.75	-81.1798894147167	-275.328781627281	287.047230325862	106.427999065361
31203.13	358.327113879257	-494.899847954514	611.002602323786	54.0939710327543
26609.38	-220.23832311486	-592.347128258015	631.965220027149	110.395445317745
22703.13	-109.907859020341	-1002.86096093366	1008.86562258768	96.2543312719002
19359.37	114.04390955979	-1002.47527696674	1008.94137304266	83.5098018516873
16500	-482.114620230355	-1233.42643104804	1324.3018039132	111.349248159299
14112.02	-84.1590923024282	-1221.99485736055	1224.88945796459	93.9397536669102
12011.13	18.7505727612135	-1632.78019481777	1632.88785547815	89.3420538398829
10236.38	-208.110170450971	-1856.0543712625	1867.68511053865	96.3975707206829
8750.684	-271.133978303423	-2208.28890826602	2224.87157754361	96.9997493633654
7449.463	689.072325306848	-1100.64870805581	1298.55621674563	57.9509567518144
6363.206	1067.88671620772	-127.068983029489	1075.42018072057	6.78577981000829
5414.761	401.395200437389	808.111441480856	902.309375317823	-63.5860539627056
4620.567	48.6748249422189	-33.7552043767972	59.2338788673763	34.7406828429167
3941.215	21.4209636622597	27.2586010476606	34.6682710168155	-51.8382361933243
3361.769	71.3145466809423	5.38868550759799	71.517847421522	-4.3211846655192
2867.244	3.57103795418508	1.30758948183107	3.80290708842928	-20.1109675781186
2442.658	5.58475818495033	-2.04031877308118	5.94579050086339	20.0691187407623
2083.003	1.96785048492769	-4.75838353768244	5.14923775162085	67.5322434808896
1777.843	20.446389112923	-18.426082462172	27.5240865908356	42.0248614501754
1513.548	91.3018048275797	-77.3575120086049	119.667055737721	40.2736904338714
1292.065	11.6215419904097	54.8238961561985	56.0421254770061	-78.0316377808824
1101.762	25.2579299196201	-12.2061301240857	28.0526761010523	25.7925889619744
939.101	5.66196305956171	22.0152443065345	22.7316697047147	-75.5770292907625
801.2801	168.175018662056	2.06521062632273	168.187698708657	-0.70356409748869
684.3433	4495.6574952432	-24037.1656927486	24453.9622731202	79.4063927145193
582.9476	-21569.2831107969	-40792.2325345365	46143.6908912302	117.8680754734
497.0677	-4684.67165853279	-34854.0090750731	35167.4294931196	97.6551557852156
423.5089	-5216.716765402	-39521.674332821	39864.4813823031	97.5193647877696
361.5036	11352.5772831552	-21287.0051609879	24125.0409262645	61.9285443571716
308.1262	22649.069602611	-30294.6135994611	37825.1763644873	53.2172195554892
262.7298	-18934.3807698934	-160133.613858031	161249.139725992	96.7434080458239
224.2111	15795.172766296	-5356.76222536133	16678.8004441626	18.7338119513201
191.2854	17663.9956060385	-16660.7658365353	24281.6362510851	43.3258595268451
163.1722	29470.7588808264	-16045.1525243583	33555.5144282088	28.565779174921
139.1537	1245.27882978445	-138447.854725098	138453.454985225	89.484663035091
118.6706	-28675.2017539158	-130749.65645216	133857.162146766	102.369910889788
101.1982	188162.049682066	-204155.173706374	277640.580412223	47.3344155010291
86.24196	120132.146105163	-20024.7928587676	121789.674672645	9.46360692753327
73.61024	300849.580070534	1275.76420225239	300852.285021929	-0.242963497870359
62.69291	210283.095136204	262620.30440396	336434.84419021	-51.315343450332
53.57697	-234436.876173268	-475289.41396812	529962.900531763	116.254855505429
45.65746	-241357.500189371	-554196.979561677	604473.105318134	113.533535161676
38.96512	637917.669687696	235770.499342128	680093.141900296	-20.2840065618261
33.18414	-269412.842273392	-750681.043443083	797562.103266337	109.742617205972
28.30617	385185.499886821	379529.060532113	540749.643653557	-44.5762024048473
24.17237	201001.861799594	558086.77046321	593180.066938328	-70.1928875941386
20.61345	-327035.203966563	-1159098.77907476	1204351.27943887	105.75620605057
17.55618	-347632.662459125	-1341152.72894909	1385474.32685562	104.531508763478
14.98558	-385269.09840253	-1560051.74217457	1606920.56942644	103.872148932842
12.76553	-410081.094851993	-1803621.76641128	1849653.47582393	102.809312222874
10.8809	-456836.195356769	-2081423.92897145	2130968.06205138	102.37913551029
9.278505	-496886.34685112	-2400701.42946404	2451583.85439245	101.693706099975
7.923394	-564039.211659236	-2811421.71119881	2867443.50781131	101.344316436504
6.75822	-623123.075415942	-3193575.17422603	3253798.51259242	101.040706100864
5.761429	-676208.265988018	-3716945.38213594	3777954.55144344	100.310815165647
4.919708	-769755.991674901	-4297945.74745854	4366332.7787534	100.15393932134
4.191257	-883012.709430806	-4955643.0243181	5033697.37166319	100.103117964912
3.564097	-973106.957533113	-5730001.42803318	5812043.83294393	99.6383918972814
3.051758	-1125790.16716411	-6619510.00376958	6714560.01466134	99.6520282928055
2.604164	-1273377.1852013	-7690095.39009797	7794809.59129838	99.4021041025694
2.214424	-1526098.95918698	-8789759.32839858	8921258.1559106	99.8496414363461
1.892567	-1489940.82803835	-10062353.7523262	10172064.0338138	98.4226327517933
1.607507	-1844453.17587739	-11784879.6434838	11928344.2157494	98.8952083412172
1.376413	-1997558.33739119	-13797419.1364618	13941270.1766548	98.2379111586431
1.17375	-2226445.87092651	-15848156.8057807	16003785.0321971	97.9969251100111
1.001604	-2875856.47858539	-18754916.3647016	18974125.4958529	98.7177633120652
