EC-Lab ASCII FILE
freq/Hz	Re(Z)/Ohm	-Im(Z)/Ohm	|Z|/Ohm	Phase(Z)/deg
6999984	-15.3377757985515	30.7764272251556	34.3865648065045	-116.489882792992
5969734	-15.7525797547044	33.5095300147969	37.027454283827	-115.177866737922
5091109	-15.6984647787721	37.6920744664309	40.8305556414962	-112.611359590413
4341796	-15.0656610107197	42.9915370316697	45.5548723852383	-109.312154014491
3702781	-13.6497172069293	49.5385445512441	51.3846492260552	-105.404868330596
3157797	-13.1191188509977	56.694799894959	58.1928828513939	-103.028869649968
2693047	-13.0535659893436	66.1371090474787	67.4130015516016	-101.165037942407
2296687	-13.1978613727231	76.7123109723529	77.8393358112246	-99.7618070063526
1958656	-13.2197104361344	89.4172685200181	90.3892065104914	-98.4098557929619
1670375	-13.1085362418409	104.520361535854	105.339165071636	-97.1484892069814
1424531	-12.6254441999149	122.048268320982	122.6995584401	-95.9060302282402
1214875	-12.4068108160145	143.007511721953	143.544687688291	-94.9583580350938
1036062	-11.5675609702103	166.244433880286	166.646392889184	-93.9803190788055
883578.1	-10.8592403495696	194.126773580723	194.43026338981	-93.2017267310022
753531.2	-9.86767707851434	227.051912408855	227.266235898437	-92.4885088676234
642624.9	-8.69721511998173	265.196001962635	265.338578061708	-91.8783661115885
548046.8	-7.29133666614043	309.92658823725	310.012344410285	-91.3476926017384
467390.6	-5.55387548791584	362.40924064103	362.451794360221	-90.8779818012901
398593.7	-3.44497509999931	423.379308404149	423.393323799768	-90.4661970339296
339937.5	-0.798505266185002	495.450673428361	495.451316893272	-90.0923420726068
289906.2	-133.522999734348	488.489928399015	506.409717131626	-105.287698461492
247234.4	-141.754417060053	593.906819289733	610.589571442948	-103.424267824388
210843.7	-147.88996169952	715.134188095031	730.265943169901	-101.684080409016
179812.5	-150.445285021113	856.569419604469	869.680949766419	-99.9616546852942
153343.8	-150.660077140901	1020.55746833932	1031.61814884543	-98.3976517919256
130781.2	-147.998847982332	1208.59478323694	1217.62268748231	-96.9814147139212
111531.3	-144.382630217727	1427.9453533691	1435.22621078246	-95.773676977565
95109.37	-136.050283490782	1680.52847870002	1686.02658560288	-94.628391640878
81109.37	-126.61542025413	1977.31613797991	1981.365835519	-93.6638744885547
69171.88	-115.012759033075	2316.26419725827	2319.11788536955	-92.8426540807937
59000	-98.5173248054125	2708.25305915294	2710.044334637	-92.0833131149068
50312.5	-78.7281945787926	3170.71732637941	3171.69457741824	-91.4223490024439
42906.25	-51.9278136908397	3726.81199206557	3727.17374454672	-90.7982833719874
36593.75	-23.0272218503241	4349.0893166662	4349.15027761587	-90.3033624285534
31203.13	-980.031038835025	4733.22154969508	4833.61635585386	-101.698003283438
26609.38	-954.503652280644	5614.9477141135	5695.4995438895	-99.6476738135625
22703.13	-959.622083921297	6679.15410290349	6747.73844145444	-98.1759744209895
19359.37	-933.116544981004	7883.32503473377	7938.3575183899	-96.750455426704
16500	-848.544174141047	9333.59399565658	9372.0864321252	-95.1946458298058
14112.02	-827.872660500813	10915.669482757	10947.0184707434	-94.337157193613
12011.13	-651.020375363674	12702.9675425368	12719.6388280439	-92.933811665999
10236.38	-667.919027519902	14971.6560040459	14986.5472785031	-92.5543990140634
8750.684	-321.846104857322	17466.2357139446	17469.2007524753	-91.0556560135602
7449.463	-381.955746705644	20521.1087087624	20524.6630381423	-91.0663130285496
6363.206	-151.548121021379	23814.2453920715	23814.7275950573	-90.3646116168529
5414.761	-97.0448857813334	27793.119715734	27793.2891404198	-90.2000581380913
4620.567	-50.6337572109834	32339.9006079555	32339.940245922	-90.0897064667491
3941.215	768.385232333146	37888.6193877196	37896.4100538923	-88.8381947548449
3361.769	-8803.92098364717	40621.1093519033	41564.2099608015	-102.228734089068
2867.244	-8824.13310470277	48609.4611605224	49403.8970058623	-100.288928177873
2442.658	-8908.50625837305	57948.3418759202	58629.1037789595	-98.7397648913982
2083.003	-8192.39909556947	68408.9226803847	68897.7220612695	-96.8290079404164
1777.843	-7494.26465732794	80541.2039670677	80889.118793685	-95.3159982908145
1513.548	-7031.63622406222	94768.0442273157	95028.5542069225	-94.2434785941091
1292.065	-6470.38733790527	111460.874342615	111648.521806259	-93.3223343468773
1101.762	-3800.2009348356	130542.234648706	130597.536554955	-91.6674603472009
939.101	-4308.50465737504	151861.47329566	151922.579901445	-91.6251187661407
801.2801	-1835.9382493575	178349.687925678	178359.137283298	-90.5897840303393
684.3433	-201.940303775058	207613.655882313	207613.754093282	-90.0557300694979
582.9476	1985.00890664756	241793.799188101	241801.947027263	-89.5296402220088
497.0677	-73234.8435501569	237498.790333349	248533.735576521	-107.137607294631
423.5089	-70457.9383048582	284129.828520752	292735.512921482	-103.927152881174
361.5036	-73587.6021993014	348946.575271836	356621.434565263	-101.908336090031
308.1262	-76113.296976217	419540.400488024	426388.768166144	-100.282797529465
262.7298	-66783.504466832	501714.435433494	506139.715089836	-97.5821036663364
224.2111	-61549.1620163992	592860.582855536	596046.95288939	-95.9270577793215
191.2854	-53695.5030257271	691227.609832367	693310.042938765	-94.4418938785629
163.1722	-30554.7168917731	813592.36256414	814165.906401782	-92.1507502473937
139.1537	-23698.7074087555	959201.707302568	959494.421049443	-91.4153016215638
118.6706	18654.0229772873	1129121.44407266	1129275.52352735	-89.053512294255
101.1982	50512.4606280049	1312103.02262638	1313074.96003236	-87.7953542719273
86.24196	66853.15250928	1468533.97406815	1470054.88910885	-87.3934816744225
73.61024	-37196.7252658243	1836019.02795901	1836395.78179597	-91.1606218816282
62.69291	864875.029819731	627949.262766835	1068797.96679031	-35.9818182891511
53.57697	-244164.151166311	2310355.42384824	2323221.53855799	-96.0327684925231
45.65746	33298.4767240104	2941350.98018305	2941539.45701497	-89.3513930519436
38.96512	476132.543558716	2889002.28547969	2927974.7957492	-80.6412886503648
33.18414	588226.883105962	3918564.10659678	3962468.36246262	-81.4629101285824
28.30617	788721.09565463	3478053.19428449	3566361.5897723	-77.2230797403938
24.17237	1312706.83578265	4027566.00365123	4236093.38311582	-71.9476281375063
20.61345	1906145.07872427	7305246.35003039	7549835.31580504	-75.3759784004511
17.55618	3378361.25347191	7084935.20313189	7849180.31335361	-64.5064533648037
14.98558	2284447.7635641	6945439.04669742	7311485.83639756	-71.793273307498
12.76553	3385007.59261953	7669459.86886715	8383250.62742703	-66.1851624087575
10.8809	2923334.96120226	8009224.62202315	8526052.21315289	-69.9481200240587
9.278505	4164890.34162636	9670910.63210188	10529616.5177975	-66.7003087623597
7.923394	4612042.59318512	11166808.4326118	12081744.3877945	-67.5587141310247
6.75822	4570086.27025486	11459599.1114065	12337264.701372	-68.2578945284228
5.761429	4365374.43011259	12156977.0549482	12916988.2337028	-70.2476050635736
4.919708	6833265.91262597	13329628.6241129	14979069.4734161	-62.8586267460075
4.191257	8928495.19253438	12393444.6107783	15274668.4325238	-54.2302375851703
3.564097	7660524.08294863	16399137.0191811	18100147.0767315	-64.9613245583581
3.051758	3349569.18830382	14245913.952758	14634400.5034925	-76.7686669130756
2.604164	9770967.21882006	24630979.2181934	26498244.0482069	-68.3620582555776
2.214424	7344223.39851255	25956480.923117	26975479.9630961	-74.2014722162124
1.892567	18284508.5917383	32093913.2901409	36937007.5224893	-60.3290180805049
1.607507	12894515.2944294	28815073.5323576	31568607.6245603	-65.8918653134301
1.376413	13995933.0259724	32008319.9425892	34934491.3633312	-66.382202594503
1.17375	17586391.4744655	39880603.4616822	43586049.345646	-66.2036689455403
1.001604	20410813.4283039	46677070.3635571	50944579.7168796	-66.3813431578103
